time,value
0.0000,0.00000
0.0040,0.00031
0.0080,0.00063
0.0120,0.00094
0.0160,0.00126
0.0200,0.00157
0.0240,0.00188
0.0280,0.00220
0.0320,0.00251
0.0360,0.00283
0.0400,0.00314
0.0440,0.00345
0.0480,0.00377
0.0520,0.00408
0.0560,0.00439
0.0600,0.00471
0.0640,0.00502
0.0680,0.00533
0.0720,0.00564
0.0760,0.00595
0.0800,0.00627
0.0840,0.00658
0.0880,0.00689
0.0920,0.00720
0.0960,0.00751
0.1000,0.00782
0.1040,0.00813
0.1080,0.00844
0.1120,0.00875
0.1160,0.00906
0.1200,0.00937
0.1240,0.00968
0.1280,0.00999
0.1320,0.01029
0.1360,0.01060
0.1400,0.01091
0.1440,0.01121
0.1480,0.01152
0.1520,0.01182
0.1560,0.01213
0.1600,0.01243
0.1640,0.01274
0.1680,0.01304
0.1720,0.01335
0.1760,0.01365
0.1800,0.01395
0.1840,0.01425
0.1880,0.01455
0.1920,0.01485
0.1960,0.01515
0.2000,0.01545
0.2040,0.01575
0.2080,0.01605
0.2120,0.01634
0.2160,0.01664
0.2200,0.01694
0.2240,0.01723
0.2280,0.01753
0.2320,0.01782
0.2360,0.01811
0.2400,0.01841
0.2440,0.01870
0.2480,0.01899
0.2520,0.01928
0.2560,0.01957
0.2600,0.01986
0.2640,0.02015
0.2680,0.02043
0.2720,0.02072
0.2760,0.02100
0.2800,0.02129
0.2840,0.02157
0.2880,0.02186
0.2920,0.02214
0.2960,0.02242
0.3000,0.02270
0.3040,0.02298
0.3080,0.02326
0.3120,0.02354
0.3160,0.02381
0.3200,0.02409
0.3240,0.02436
0.3280,0.02464
0.3320,0.02491
0.3360,0.02518
0.3400,0.02545
0.3440,0.02572
0.3480,0.02599
0.3520,0.02626
0.3560,0.02653
0.3600,0.02679
0.3640,0.02706
0.3680,0.02732
0.3720,0.02758
0.3760,0.02784
0.3800,0.02810
0.3840,0.02836
0.3880,0.02862
0.3920,0.02888
0.3960,0.02913
0.4000,0.02939
0.4040,0.02964
0.4080,0.02990
0.4120,0.03015
0.4160,0.03040
0.4200,0.03065
0.4240,0.03089
0.4280,0.03114
0.4320,0.03138
0.4360,0.03163
0.4400,0.03187
0.4440,0.03211
0.4480,0.03235
0.4520,0.03259
0.4560,0.03283
0.4600,0.03307
0.4640,0.03334
0.4680,0.03387
0.4720,0.03595
0.4760,0.04511
0.4800,0.07816
0.4840,0.16979
0.4880,0.35934
0.4920,0.64144
0.4960,0.91763
0.5000,1.03536
0.5040,0.91807
0.5080,0.64233
0.5120,0.36067
0.5160,0.17157
0.5200,0.08039
0.5240,0.04777
0.5280,0.03906
0.5320,0.03742
0.5360,0.03734
0.5400,0.03751
0.5440,0.03771
0.5480,0.03792
0.5520,0.03812
0.5560,0.03832
0.5600,0.03853
0.5640,0.03873
0.5680,0.03892
0.5720,0.03912
0.5760,0.03931
0.5800,0.03951
0.5840,0.03970
0.5880,0.03989
0.5920,0.04008
0.5960,0.04027
0.6000,0.04045
0.6040,0.04063
0.6080,0.04082
0.6120,0.04100
0.6160,0.04118
0.6200,0.04135
0.6240,0.04153
0.6280,0.04170
0.6320,0.04188
0.6360,0.04205
0.6400,0.04222
0.6440,0.04238
0.6480,0.04255
0.6520,0.04271
0.6560,0.04288
0.6600,0.04304
0.6640,0.04320
0.6680,0.04335
0.6720,0.04351
0.6760,0.04366
0.6800,0.04382
0.6840,0.04397
0.6880,0.04411
0.6920,0.04426
0.6960,0.04441
0.7000,0.04455
0.7040,0.04469
0.7080,0.04483
0.7120,0.04497
0.7160,0.04511
0.7200,0.04524
0.7240,0.04537
0.7280,0.04551
0.7320,0.04563
0.7360,0.04576
0.7400,0.04589
0.7440,0.04601
0.7480,0.04613
0.7520,0.04625
0.7560,0.04637
0.7600,0.04649
0.7640,0.04660
0.7680,0.04672
0.7720,0.04683
0.7760,0.04694
0.7800,0.04704
0.7840,0.04715
0.7880,0.04725
0.7920,0.04735
0.7960,0.04745
0.8000,0.04755
0.8040,0.04765
0.8080,0.04774
0.8120,0.04784
0.8160,0.04793
0.8200,0.04801
0.8240,0.04810
0.8280,0.04819
0.8320,0.04827
0.8360,0.04835
0.8400,0.04843
0.8440,0.04851
0.8480,0.04858
0.8520,0.04865
0.8560,0.04873
0.8600,0.04880
0.8640,0.04886
0.8680,0.04893
0.8720,0.04899
0.8760,0.04905
0.8800,0.04911
0.8840,0.04917
0.8880,0.04923
0.8920,0.04928
0.8960,0.04933
0.9000,0.04938
0.9040,0.04943
0.9080,0.04948
0.9120,0.04952
0.9160,0.04957
0.9200,0.04961
0.9240,0.04964
0.9280,0.04968
0.9320,0.04972
0.9360,0.04975
0.9400,0.04978
0.9440,0.04981
0.9480,0.04983
0.9520,0.04986
0.9560,0.04988
0.9600,0.04990
0.9640,0.04992
0.9680,0.04994
0.9720,0.04995
0.9760,0.04996
0.9800,0.04998
0.9840,0.04998
0.9880,0.04999
0.9920,0.05000
0.9960,0.05000
1.0000,0.05000
1.0040,0.05000
1.0080,0.05000
1.0120,0.04999
1.0160,0.04998
1.0200,0.04998
1.0240,0.04996
1.0280,0.04995
1.0320,0.04994
1.0360,0.04992
1.0400,0.04990
1.0440,0.04988
1.0480,0.04986
1.0520,0.04983
1.0560,0.04981
1.0600,0.04978
1.0640,0.04975
1.0680,0.04972
1.0720,0.04968
1.0760,0.04964
1.0800,0.04961
1.0840,0.04957
1.0880,0.04952
1.0920,0.04948
1.0960,0.04943
1.1000,0.04938
1.1040,0.04933
1.1080,0.04928
1.1120,0.04923
1.1160,0.04917
1.1200,0.04911
1.1240,0.04905
1.1280,0.04899
1.1320,0.04893
1.1360,0.04886
1.1400,0.04880
1.1440,0.04873
1.1480,0.04865
1.1520,0.04858
1.1560,0.04851
1.1600,0.04843
1.1640,0.04835
1.1680,0.04827
1.1720,0.04819
1.1760,0.04810
1.1800,0.04801
1.1840,0.04793
1.1880,0.04784
1.1920,0.04774
1.1960,0.04765
1.2000,0.04755
1.2040,0.04745
1.2080,0.04735
1.2120,0.04725
1.2160,0.04715
1.2200,0.04704
1.2240,0.04694
1.2280,0.04683
1.2320,0.04672
1.2360,0.04660
1.2400,0.04649
1.2440,0.04637
1.2480,0.04625
1.2520,0.04613
1.2560,0.04601
1.2600,0.04589
1.2640,0.04576
1.2680,0.04563
1.2720,0.04551
1.2760,0.04537
1.2800,0.04524
1.2840,0.04511
1.2880,0.04497
1.2920,0.04483
1.2960,0.04469
1.3000,0.04455
1.3040,0.04441
1.3080,0.04426
1.3120,0.04411
1.3160,0.04397
1.3200,0.04382
1.3240,0.04366
1.3280,0.04351
1.3320,0.04335
1.3360,0.04320
1.3400,0.04304
1.3440,0.04288
1.3480,0.04271
1.3520,0.04255
1.3560,0.04238
1.3600,0.04222
1.3640,0.04205
1.3680,0.04188
1.3720,0.04170
1.3760,0.04153
1.3800,0.04135
1.3840,0.04118
1.3880,0.04100
1.3920,0.04082
1.3960,0.04063
1.4000,0.04045
1.4040,0.04027
1.4080,0.04008
1.4120,0.03989
1.4160,0.03970
1.4200,0.03951
1.4240,0.03931
1.4280,0.03912
1.4320,0.03892
1.4360,0.03873
1.4400,0.03853
1.4440,0.03832
1.4480,0.03812
1.4520,0.03792
1.4560,0.03771
1.4600,0.03751
1.4640,0.03734
1.4680,0.03742
1.4720,0.03906
1.4760,0.04777
1.4800,0.08039
1.4840,0.17157
1.4880,0.36067
1.4920,0.64233
1.4960,0.91807
1.5000,1.03536
1.5040,0.91763
1.5080,0.64144
1.5120,0.35934
1.5160,0.16979
1.5200,0.07816
1.5240,0.04511
1.5280,0.03595
1.5320,0.03387
1.5360,0.03334
1.5400,0.03307
1.5440,0.03283
1.5480,0.03259
1.5520,0.03235
1.5560,0.03211
1.5600,0.03187
1.5640,0.03163
1.5680,0.03138
1.5720,0.03114
1.5760,0.03089
1.5800,0.03065
1.5840,0.03040
1.5880,0.03015
1.5920,0.02990
1.5960,0.02964
1.6000,0.02939
1.6040,0.02913
1.6080,0.02888
1.6120,0.02862
1.6160,0.02836
1.6200,0.02810
1.6240,0.02784
1.6280,0.02758
1.6320,0.02732
1.6360,0.02706
1.6400,0.02679
1.6440,0.02653
1.6480,0.02626
1.6520,0.02599
1.6560,0.02572
1.6600,0.02545
1.6640,0.02518
1.6680,0.02491
1.6720,0.02464
1.6760,0.02436
1.6800,0.02409
1.6840,0.02381
1.6880,0.02354
1.6920,0.02326
1.6960,0.02298
1.7000,0.02270
1.7040,0.02242
1.7080,0.02214
1.7120,0.02186
1.7160,0.02157
1.7200,0.02129
1.7240,0.02100
1.7280,0.02072
1.7320,0.02043
1.7360,0.02015
1.7400,0.01986
1.7440,0.01957
1.7480,0.01928
1.7520,0.01899
1.7560,0.01870
1.7600,0.01841
1.7640,0.01811
1.7680,0.01782
1.7720,0.01753
1.7760,0.01723
1.7800,0.01694
1.7840,0.01664
1.7880,0.01634
1.7920,0.01605
1.7960,0.01575
1.8000,0.01545
1.8040,0.01515
1.8080,0.01485
1.8120,0.01455
1.8160,0.01425
1.8200,0.01395
1.8240,0.01365
1.8280,0.01335
1.8320,0.01304
1.8360,0.01274
1.8400,0.01243
1.8440,0.01213
1.8480,0.01182
1.8520,0.01152
1.8560,0.01121
1.8600,0.01091
1.8640,0.01060
1.8680,0.01029
1.8720,0.00999
1.8760,0.00968
1.8800,0.00937
1.8840,0.00906
1.8880,0.00875
1.8920,0.00844
1.8960,0.00813
1.9000,0.00782
1.9040,0.00751
1.9080,0.00720
1.9120,0.00689
1.9160,0.00658
1.9200,0.00627
1.9240,0.00595
1.9280,0.00564
1.9320,0.00533
1.9360,0.00502
1.9400,0.00471
1.9440,0.00439
1.9480,0.00408
1.9520,0.00377
1.9560,0.00345
1.9600,0.00314
1.9640,0.00283
1.9680,0.00251
1.9720,0.00220
1.9760,0.00188
1.9800,0.00157
1.9840,0.00126
1.9880,0.00094
1.9920,0.00063
1.9960,0.00031
2.0000,0.00000
2.0040,-0.00031
2.0080,-0.00063
2.0120,-0.00094
2.0160,-0.00126
2.0200,-0.00157
2.0240,-0.00188
2.0280,-0.00220
2.0320,-0.00251
2.0360,-0.00283
2.0400,-0.00314
2.0440,-0.00345
2.0480,-0.00377
2.0520,-0.00408
2.0560,-0.00439
2.0600,-0.00471
2.0640,-0.00502
2.0680,-0.00533
2.0720,-0.00564
2.0760,-0.00595
2.0800,-0.00627
2.0840,-0.00658
2.0880,-0.00689
2.0920,-0.00720
2.0960,-0.00751
2.1000,-0.00782
2.1040,-0.00813
2.1080,-0.00844
2.1120,-0.00875
2.1160,-0.00906
2.1200,-0.00937
2.1240,-0.00968
2.1280,-0.00999
2.1320,-0.01029
2.1360,-0.01060
2.1400,-0.01091
2.1440,-0.01121
2.1480,-0.01152
2.1520,-0.01182
2.1560,-0.01213
2.1600,-0.01243
2.1640,-0.01274
2.1680,-0.01304
2.1720,-0.01335
2.1760,-0.01365
2.1800,-0.01395
2.1840,-0.01425
2.1880,-0.01455
2.1920,-0.01485
2.1960,-0.01515
2.2000,-0.01545
2.2040,-0.01575
2.2080,-0.01605
2.2120,-0.01634
2.2160,-0.01664
2.2200,-0.01694
2.2240,-0.01723
2.2280,-0.01753
2.2320,-0.01782
2.2360,-0.01811
2.2400,-0.01841
2.2440,-0.01870
2.2480,-0.01899
2.2520,-0.01928
2.2560,-0.01957
2.2600,-0.01986
2.2640,-0.02015
2.2680,-0.02043
2.2720,-0.02072
2.2760,-0.02100
2.2800,-0.02129
2.2840,-0.02157
2.2880,-0.02186
2.2920,-0.02214
2.2960,-0.02242
2.3000,-0.02270
2.3040,-0.02298
2.3080,-0.02326
2.3120,-0.02354
2.3160,-0.02381
2.3200,-0.02409
2.3240,-0.02436
2.3280,-0.02464
2.3320,-0.02491
2.3360,-0.02518
2.3400,-0.02545
2.3440,-0.02572
2.3480,-0.02599
2.3520,-0.02626
2.3560,-0.02653
2.3600,-0.02679
2.3640,-0.02706
2.3680,-0.02732
2.3720,-0.02758
2.3760,-0.02784
2.3800,-0.02810
2.3840,-0.02836
2.3880,-0.02862
2.3920,-0.02888
2.3960,-0.02913
2.4000,-0.02939
2.4040,-0.02964
2.4080,-0.02990
2.4120,-0.03015
2.4160,-0.03040
2.4200,-0.03065
2.4240,-0.03089
2.4280,-0.03114
2.4320,-0.03138
2.4360,-0.03163
2.4400,-0.03187
2.4440,-0.03211
2.4480,-0.03235
2.4520,-0.03259
2.4560,-0.03283
2.4600,-0.03306
2.4640,-0.03326
2.4680,-0.03320
2.4720,-0.03158
2.4760,-0.02289
2.4800,0.00971
2.4840,0.10088
2.4880,0.28997
2.4920,0.57162
2.4960,0.84736
2.5000,0.96464
2.5040,0.84692
2.5080,0.57073
2.5120,0.28864
2.5160,0.09910
2.5200,0.00749
2.5240,-0.02555
2.5280,-0.03469
2.5320,-0.03675
2.5360,-0.03726
2.5400,-0.03750
2.5440,-0.03771
2.5480,-0.03792
2.5520,-0.03812
2.5560,-0.03832
2.5600,-0.03853
2.5640,-0.03873
2.5680,-0.03892
2.5720,-0.03912
2.5760,-0.03931
2.5800,-0.03951
2.5840,-0.03970
2.5880,-0.03989
2.5920,-0.04008
2.5960,-0.04027
2.6000,-0.04045
2.6040,-0.04063
2.6080,-0.04082
2.6120,-0.04100
2.6160,-0.04118
2.6200,-0.04135
2.6240,-0.04153
2.6280,-0.04170
2.6320,-0.04188
2.6360,-0.04205
2.6400,-0.04222
2.6440,-0.04238
2.6480,-0.04255
2.6520,-0.04271
2.6560,-0.04288
2.6600,-0.04304
2.6640,-0.04320
2.6680,-0.04335
2.6720,-0.04351
2.6760,-0.04366
2.6800,-0.04382
2.6840,-0.04397
2.6880,-0.04411
2.6920,-0.04426
2.6960,-0.04441
2.7000,-0.04455
2.7040,-0.04469
2.7080,-0.04483
2.7120,-0.04497
2.7160,-0.04511
2.7200,-0.04524
2.7240,-0.04537
2.7280,-0.04551
2.7320,-0.04563
2.7360,-0.04576
2.7400,-0.04589
2.7440,-0.04601
2.7480,-0.04613
2.7520,-0.04625
2.7560,-0.04637
2.7600,-0.04649
2.7640,-0.04660
2.7680,-0.04672
2.7720,-0.04683
2.7760,-0.04694
2.7800,-0.04704
2.7840,-0.04715
2.7880,-0.04725
2.7920,-0.04735
2.7960,-0.04745
2.8000,-0.04755
2.8040,-0.04765
2.8080,-0.04774
2.8120,-0.04784
2.8160,-0.04793
2.8200,-0.04801
2.8240,-0.04810
2.8280,-0.04819
2.8320,-0.04827
2.8360,-0.04835
2.8400,-0.04843
2.8440,-0.04851
2.8480,-0.04858
2.8520,-0.04865
2.8560,-0.04873
2.8600,-0.04880
2.8640,-0.04886
2.8680,-0.04893
2.8720,-0.04899
2.8760,-0.04905
2.8800,-0.04911
2.8840,-0.04917
2.8880,-0.04923
2.8920,-0.04928
2.8960,-0.04933
2.9000,-0.04938
2.9040,-0.04943
2.9080,-0.04948
2.9120,-0.04952
2.9160,-0.04957
2.9200,-0.04961
2.9240,-0.04964
2.9280,-0.04968
2.9320,-0.04972
2.9360,-0.04975
2.9400,-0.04978
2.9440,-0.04981
2.9480,-0.04983
2.9520,-0.04986
2.9560,-0.04988
2.9600,-0.04990
2.9640,-0.04992
2.9680,-0.04994
2.9720,-0.04995
2.9760,-0.04996
2.9800,-0.04998
2.9840,-0.04998
2.9880,-0.04999
2.9920,-0.05000
2.9960,-0.05000
3.0000,-0.05000
3.0040,-0.05000
3.0080,-0.05000
3.0120,-0.04999
3.0160,-0.04998
3.0200,-0.04998
3.0240,-0.04996
3.0280,-0.04995
3.0320,-0.04994
3.0360,-0.04992
3.0400,-0.04990
3.0440,-0.04988
3.0480,-0.04986
3.0520,-0.04983
3.0560,-0.04981
3.0600,-0.04978
3.0640,-0.04975
3.0680,-0.04972
3.0720,-0.04968
3.0760,-0.04964
3.0800,-0.04961
3.0840,-0.04957
3.0880,-0.04952
3.0920,-0.04948
3.0960,-0.04943
3.1000,-0.04938
3.1040,-0.04933
3.1080,-0.04928
3.1120,-0.04923
3.1160,-0.04917
3.1200,-0.04911
3.1240,-0.04905
3.1280,-0.04899
3.1320,-0.04893
3.1360,-0.04886
3.1400,-0.04880
3.1440,-0.04873
3.1480,-0.04865
3.1520,-0.04858
3.1560,-0.04851
3.1600,-0.04843
3.1640,-0.04835
3.1680,-0.04827
3.1720,-0.04819
3.1760,-0.04810
3.1800,-0.04801
3.1840,-0.04793
3.1880,-0.04784
3.1920,-0.04774
3.1960,-0.04765
3.2000,-0.04755
3.2040,-0.04745
3.2080,-0.04735
3.2120,-0.04725
3.2160,-0.04715
3.2200,-0.04704
3.2240,-0.04694
3.2280,-0.04683
3.2320,-0.04672
3.2360,-0.04660
3.2400,-0.04649
3.2440,-0.04637
3.2480,-0.04625
3.2520,-0.04613
3.2560,-0.04601
3.2600,-0.04589
3.2640,-0.04576
3.2680,-0.04563
3.2720,-0.04551
3.2760,-0.04537
3.2800,-0.04524
3.2840,-0.04511
3.2880,-0.04497
3.2920,-0.04483
3.2960,-0.04469
3.3000,-0.04455
3.3040,-0.04441
3.3080,-0.04426
3.3120,-0.04411
3.3160,-0.04397
3.3200,-0.04382
3.3240,-0.04366
3.3280,-0.04351
3.3320,-0.04335
3.3360,-0.04320
3.3400,-0.04304
3.3440,-0.04288
3.3480,-0.04271
3.3520,-0.04255
3.3560,-0.04238
3.3600,-0.04222
3.3640,-0.04205
3.3680,-0.04188
3.3720,-0.04170
3.3760,-0.04153
3.3800,-0.04135
3.3840,-0.04118
3.3880,-0.04100
3.3920,-0.04082
3.3960,-0.04063
3.4000,-0.04045
3.4040,-0.04027
3.4080,-0.04008
3.4120,-0.03989
3.4160,-0.03970
3.4200,-0.03951
3.4240,-0.03931
3.4280,-0.03912
3.4320,-0.03892
3.4360,-0.03873
3.4400,-0.03853
3.4440,-0.03832
3.4480,-0.03812
3.4520,-0.03792
3.4560,-0.03771
3.4600,-0.03750
3.4640,-0.03726
3.4680,-0.03675
3.4720,-0.03469
3.4760,-0.02555
3.4800,0.00749
3.4840,0.09910
3.4880,0.28864
3.4920,0.57073
3.4960,0.84692
3.5000,0.96464
3.5040,0.84736
3.5080,0.57162
3.5120,0.28997
3.5160,0.10088
3.5200,0.00971
3.5240,-0.02289
3.5280,-0.03158
3.5320,-0.03320
3.5360,-0.03326
3.5400,-0.03306
3.5440,-0.03283
3.5480,-0.03259
3.5520,-0.03235
3.5560,-0.03211
3.5600,-0.03187
3.5640,-0.03163
3.5680,-0.03138
3.5720,-0.03114
3.5760,-0.03089
3.5800,-0.03065
3.5840,-0.03040
3.5880,-0.03015
3.5920,-0.02990
3.5960,-0.02964
3.6000,-0.02939
3.6040,-0.02913
3.6080,-0.02888
3.6120,-0.02862
3.6160,-0.02836
3.6200,-0.02810
3.6240,-0.02784
3.6280,-0.02758
3.6320,-0.02732
3.6360,-0.02706
3.6400,-0.02679
3.6440,-0.02653
3.6480,-0.02626
3.6520,-0.02599
3.6560,-0.02572
3.6600,-0.02545
3.6640,-0.02518
3.6680,-0.02491
3.6720,-0.02464
3.6760,-0.02436
3.6800,-0.02409
3.6840,-0.02381
3.6880,-0.02354
3.6920,-0.02326
3.6960,-0.02298
3.7000,-0.02270
3.7040,-0.02242
3.7080,-0.02214
3.7120,-0.02186
3.7160,-0.02157
3.7200,-0.02129
3.7240,-0.02100
3.7280,-0.02072
3.7320,-0.02043
3.7360,-0.02015
3.7400,-0.01986
3.7440,-0.01957
3.7480,-0.01928
3.7520,-0.01899
3.7560,-0.01870
3.7600,-0.01841
3.7640,-0.01811
3.7680,-0.01782
3.7720,-0.01753
3.7760,-0.01723
3.7800,-0.01694
3.7840,-0.01664
3.7880,-0.01634
3.7920,-0.01605
3.7960,-0.01575
3.8000,-0.01545
3.8040,-0.01515
3.8080,-0.01485
3.8120,-0.01455
3.8160,-0.01425
3.8200,-0.01395
3.8240,-0.01365
3.8280,-0.01335
3.8320,-0.01304
3.8360,-0.01274
3.8400,-0.01243
3.8440,-0.01213
3.8480,-0.01182
3.8520,-0.01152
3.8560,-0.01121
3.8600,-0.01091
3.8640,-0.01060
3.8680,-0.01029
3.8720,-0.00999
3.8760,-0.00968
3.8800,-0.00937
3.8840,-0.00906
3.8880,-0.00875
3.8920,-0.00844
3.8960,-0.00813
3.9000,-0.00782
3.9040,-0.00751
3.9080,-0.00720
3.9120,-0.00689
3.9160,-0.00658
3.9200,-0.00627
3.9240,-0.00595
3.9280,-0.00564
3.9320,-0.00533
3.9360,-0.00502
3.9400,-0.00471
3.9440,-0.00439
3.9480,-0.00408
3.9520,-0.00377
3.9560,-0.00345
3.9600,-0.00314
3.9640,-0.00283
3.9680,-0.00251
3.9720,-0.00220
3.9760,-0.00188
3.9800,-0.00157
3.9840,-0.00126
3.9880,-0.00094
3.9920,-0.00063
3.9960,-0.00031
4.0000,-0.00000
4.0040,0.00031
4.0080,0.00063
4.0120,0.00094
4.0160,0.00126
4.0200,0.00157
4.0240,0.00188
4.0280,0.00220
4.0320,0.00251
4.0360,0.00283
4.0400,0.00314
4.0440,0.00345
4.0480,0.00377
4.0520,0.00408
4.0560,0.00439
4.0600,0.00471
4.0640,0.00502
4.0680,0.00533
4.0720,0.00564
4.0760,0.00595
4.0800,0.00627
4.0840,0.00658
4.0880,0.00689
4.0920,0.00720
4.0960,0.00751
4.1000,0.00782
4.1040,0.00813
4.1080,0.00844
4.1120,0.00875
4.1160,0.00906
4.1200,0.00937
4.1240,0.00968
4.1280,0.00999
4.1320,0.01029
4.1360,0.01060
4.1400,0.01091
4.1440,0.01121
4.1480,0.01152
4.1520,0.01182
4.1560,0.01213
4.1600,0.01243
4.1640,0.01274
4.1680,0.01304
4.1720,0.01335
4.1760,0.01365
4.1800,0.01395
4.1840,0.01425
4.1880,0.01455
4.1920,0.01485
4.1960,0.01515
4.2000,0.01545
4.2040,0.01575
4.2080,0.01605
4.2120,0.01634
4.2160,0.01664
4.2200,0.01694
4.2240,0.01723
4.2280,0.01753
4.2320,0.01782
4.2360,0.01811
4.2400,0.01841
4.2440,0.01870
4.2480,0.01899
4.2520,0.01928
4.2560,0.01957
4.2600,0.01986
4.2640,0.02015
4.2680,0.02043
4.2720,0.02072
4.2760,0.02100
4.2800,0.02129
4.2840,0.02157
4.2880,0.02186
4.2920,0.02214
4.2960,0.02242
4.3000,0.02270
4.3040,0.02298
4.3080,0.02326
4.3120,0.02354
4.3160,0.02381
4.3200,0.02409
4.3240,0.02436
4.3280,0.02464
4.3320,0.02491
4.3360,0.02518
4.3400,0.02545
4.3440,0.02572
4.3480,0.02599
4.3520,0.02626
4.3560,0.02653
4.3600,0.02679
4.3640,0.02706
4.3680,0.02732
4.3720,0.02758
4.3760,0.02784
4.3800,0.02810
4.3840,0.02836
4.3880,0.02862
4.3920,0.02888
4.3960,0.02913
4.4000,0.02939
4.4040,0.02964
4.4080,0.02990
4.4120,0.03015
4.4160,0.03040
4.4200,0.03065
4.4240,0.03089
4.4280,0.03114
4.4320,0.03138
4.4360,0.03163
4.4400,0.03187
4.4440,0.03211
4.4480,0.03235
4.4520,0.03259
4.4560,0.03283
4.4600,0.03307
4.4640,0.03334
4.4680,0.03387
4.4720,0.03595
4.4760,0.04511
4.4800,0.07816
4.4840,0.16979
4.4880,0.35934
4.4920,0.64144
4.4960,0.91763
4.5000,1.03536
4.5040,0.91807
4.5080,0.64233
4.5120,0.36067
4.5160,0.17157
4.5200,0.08039
4.5240,0.04777
4.5280,0.03906
4.5320,0.03742
4.5360,0.03734
4.5400,0.03751
4.5440,0.03771
4.5480,0.03792
4.5520,0.03812
4.5560,0.03832
4.5600,0.03853
4.5640,0.03873
4.5680,0.03892
4.5720,0.03912
4.5760,0.03931
4.5800,0.03951
4.5840,0.03970
4.5880,0.03989
4.5920,0.04008
4.5960,0.04027
4.6000,0.04045
4.6040,0.04063
4.6080,0.04082
4.6120,0.04100
4.6160,0.04118
4.6200,0.04135
4.6240,0.04153
4.6280,0.04170
4.6320,0.04188
4.6360,0.04205
4.6400,0.04222
4.6440,0.04238
4.6480,0.04255
4.6520,0.04271
4.6560,0.04288
4.6600,0.04304
4.6640,0.04320
4.6680,0.04335
4.6720,0.04351
4.6760,0.04366
4.6800,0.04382
4.6840,0.04397
4.6880,0.04411
4.6920,0.04426
4.6960,0.04441
4.7000,0.04455
4.7040,0.04469
4.7080,0.04483
4.7120,0.04497
4.7160,0.04511
4.7200,0.04524
4.7240,0.04537
4.7280,0.04551
4.7320,0.04563
4.7360,0.04576
4.7400,0.04589
4.7440,0.04601
4.7480,0.04613
4.7520,0.04625
4.7560,0.04637
4.7600,0.04649
4.7640,0.04660
4.7680,0.04672
4.7720,0.04683
4.7760,0.04694
4.7800,0.04704
4.7840,0.04715
4.7880,0.04725
4.7920,0.04735
4.7960,0.04745
4.8000,0.04755
4.8040,0.04765
4.8080,0.04774
4.8120,0.04784
4.8160,0.04793
4.8200,0.04801
4.8240,0.04810
4.8280,0.04819
4.8320,0.04827
4.8360,0.04835
4.8400,0.04843
4.8440,0.04851
4.8480,0.04858
4.8520,0.04865
4.8560,0.04873
4.8600,0.04880
4.8640,0.04886
4.8680,0.04893
4.8720,0.04899
4.8760,0.04905
4.8800,0.04911
4.8840,0.04917
4.8880,0.04923
4.8920,0.04928
4.8960,0.04933
4.9000,0.04938
4.9040,0.04943
4.9080,0.04948
4.9120,0.04952
4.9160,0.04957
4.9200,0.04961
4.9240,0.04964
4.9280,0.04968
4.9320,0.04972
4.9360,0.04975
4.9400,0.04978
4.9440,0.04981
4.9480,0.04983
4.9520,0.04986
4.9560,0.04988
4.9600,0.04990
4.9640,0.04992
4.9680,0.04994
4.9720,0.04995
4.9760,0.04996
4.9800,0.04998
4.9840,0.04998
4.9880,0.04999
4.9920,0.05000
4.9960,0.05000
5.0000,0.05000
5.0040,0.05000
5.0080,0.05000
5.0120,0.04999
5.0160,0.04998
5.0200,0.04998
5.0240,0.04996
5.0280,0.04995
5.0320,0.04994
5.0360,0.04992
5.0400,0.04990
5.0440,0.04988
5.0480,0.04986
5.0520,0.04983
5.0560,0.04981
5.0600,0.04978
5.0640,0.04975
5.0680,0.04972
5.0720,0.04968
5.0760,0.04964
5.0800,0.04961
5.0840,0.04957
5.0880,0.04952
5.0920,0.04948
5.0960,0.04943
5.1000,0.04938
5.1040,0.04933
5.1080,0.04928
5.1120,0.04923
5.1160,0.04917
5.1200,0.04911
5.1240,0.04905
5.1280,0.04899
5.1320,0.04893
5.1360,0.04886
5.1400,0.04880
5.1440,0.04873
5.1480,0.04865
5.1520,0.04858
5.1560,0.04851
5.1600,0.04843
5.1640,0.04835
5.1680,0.04827
5.1720,0.04819
5.1760,0.04810
5.1800,0.04801
5.1840,0.04793
5.1880,0.04784
5.1920,0.04774
5.1960,0.04765
5.2000,0.04755
5.2040,0.04745
5.2080,0.04735
5.2120,0.04725
5.2160,0.04715
5.2200,0.04704
5.2240,0.04694
5.2280,0.04683
5.2320,0.04672
5.2360,0.04660
5.2400,0.04649
5.2440,0.04637
5.2480,0.04625
5.2520,0.04613
5.2560,0.04601
5.2600,0.04589
5.2640,0.04576
5.2680,0.04563
5.2720,0.04551
5.2760,0.04537
5.2800,0.04524
5.2840,0.04511
5.2880,0.04497
5.2920,0.04483
5.2960,0.04469
5.3000,0.04455
5.3040,0.04441
5.3080,0.04426
5.3120,0.04411
5.3160,0.04397
5.3200,0.04382
5.3240,0.04366
5.3280,0.04351
5.3320,0.04335
5.3360,0.04320
5.3400,0.04304
5.3440,0.04288
5.3480,0.04271
5.3520,0.04255
5.3560,0.04238
5.3600,0.04222
5.3640,0.04205
5.3680,0.04188
5.3720,0.04170
5.3760,0.04153
5.3800,0.04135
5.3840,0.04118
5.3880,0.04100
5.3920,0.04082
5.3960,0.04063
5.4000,0.04045
5.4040,0.04027
5.4080,0.04008
5.4120,0.03989
5.4160,0.03970
5.4200,0.03951
5.4240,0.03931
5.4280,0.03912
5.4320,0.03892
5.4360,0.03873
5.4400,0.03853
5.4440,0.03832
5.4480,0.03812
5.4520,0.03792
5.4560,0.03771
5.4600,0.03751
5.4640,0.03734
5.4680,0.03742
5.4720,0.03906
5.4760,0.04777
5.4800,0.08039
5.4840,0.17157
5.4880,0.36067
5.4920,0.64233
5.4960,0.91807
5.5000,1.03536
5.5040,0.91763
5.5080,0.64144
5.5120,0.35934
5.5160,0.16979
5.5200,0.07816
5.5240,0.04511
5.5280,0.03595
5.5320,0.03387
5.5360,0.03334
5.5400,0.03307
5.5440,0.03283
5.5480,0.03259
5.5520,0.03235
5.5560,0.03211
5.5600,0.03187
5.5640,0.03163
5.5680,0.03138
5.5720,0.03114
5.5760,0.03089
5.5800,0.03065
5.5840,0.03040
5.5880,0.03015
5.5920,0.02990
5.5960,0.02964
5.6000,0.02939
5.6040,0.02913
5.6080,0.02888
5.6120,0.02862
5.6160,0.02836
5.6200,0.02810
5.6240,0.02784
5.6280,0.02758
5.6320,0.02732
5.6360,0.02706
5.6400,0.02679
5.6440,0.02653
5.6480,0.02626
5.6520,0.02599
5.6560,0.02572
5.6600,0.02545
5.6640,0.02518
5.6680,0.02491
5.6720,0.02464
5.6760,0.02436
5.6800,0.02409
5.6840,0.02381
5.6880,0.02354
5.6920,0.02326
5.6960,0.02298
5.7000,0.02270
5.7040,0.02242
5.7080,0.02214
5.7120,0.02186
5.7160,0.02157
5.7200,0.02129
5.7240,0.02100
5.7280,0.02072
5.7320,0.02043
5.7360,0.02015
5.7400,0.01986
5.7440,0.01957
5.7480,0.01928
5.7520,0.01899
5.7560,0.01870
5.7600,0.01841
5.7640,0.01811
5.7680,0.01782
5.7720,0.01753
5.7760,0.01723
5.7800,0.01694
5.7840,0.01664
5.7880,0.01634
5.7920,0.01605
5.7960,0.01575
5.8000,0.01545
5.8040,0.01515
5.8080,0.01485
5.8120,0.01455
5.8160,0.01425
5.8200,0.01395
5.8240,0.01365
5.8280,0.01335
5.8320,0.01304
5.8360,0.01274
5.8400,0.01243
5.8440,0.01213
5.8480,0.01182
5.8520,0.01152
5.8560,0.01121
5.8600,0.01091
5.8640,0.01060
5.8680,0.01029
5.8720,0.00999
5.8760,0.00968
5.8800,0.00937
5.8840,0.00906
5.8880,0.00875
5.8920,0.00844
5.8960,0.00813
5.9000,0.00782
5.9040,0.00751
5.9080,0.00720
5.9120,0.00689
5.9160,0.00658
5.9200,0.00627
5.9240,0.00595
5.9280,0.00564
5.9320,0.00533
5.9360,0.00502
5.9400,0.00471
5.9440,0.00439
5.9480,0.00408
5.9520,0.00377
5.9560,0.00345
5.9600,0.00314
5.9640,0.00283
5.9680,0.00251
5.9720,0.00220
5.9760,0.00188
5.9800,0.00157
5.9840,0.00126
5.9880,0.00094
5.9920,0.00063
5.9960,0.00031
6.0000,0.00000
6.0040,-0.00031
6.0080,-0.00063
6.0120,-0.00094
6.0160,-0.00126
6.0200,-0.00157
6.0240,-0.00188
6.0280,-0.00220
6.0320,-0.00251
6.0360,-0.00283
6.0400,-0.00314
6.0440,-0.00345
6.0480,-0.00377
6.0520,-0.00408
6.0560,-0.00439
6.0600,-0.00471
6.0640,-0.00502
6.0680,-0.00533
6.0720,-0.00564
6.0760,-0.00595
6.0800,-0.00627
6.0840,-0.00658
6.0880,-0.00689
6.0920,-0.00720
6.0960,-0.00751
6.1000,-0.00782
6.1040,-0.00813
6.1080,-0.00844
6.1120,-0.00875
6.1160,-0.00906
6.1200,-0.00937
6.1240,-0.00968
6.1280,-0.00999
6.1320,-0.01029
6.1360,-0.01060
6.1400,-0.01091
6.1440,-0.01121
6.1480,-0.01152
6.1520,-0.01182
6.1560,-0.01213
6.1600,-0.01243
6.1640,-0.01274
6.1680,-0.01304
6.1720,-0.01335
6.1760,-0.01365
6.1800,-0.01395
6.1840,-0.01425
6.1880,-0.01455
6.1920,-0.01485
6.1960,-0.01515
6.2000,-0.01545
6.2040,-0.01575
6.2080,-0.01605
6.2120,-0.01634
6.2160,-0.01664
6.2200,-0.01694
6.2240,-0.01723
6.2280,-0.01753
6.2320,-0.01782
6.2360,-0.01811
6.2400,-0.01841
6.2440,-0.01870
6.2480,-0.01899
6.2520,-0.01928
6.2560,-0.01957
6.2600,-0.01986
6.2640,-0.02015
6.2680,-0.02043
6.2720,-0.02072
6.2760,-0.02100
6.2800,-0.02129
6.2840,-0.02157
6.2880,-0.02186
6.2920,-0.02214
6.2960,-0.02242
6.3000,-0.02270
6.3040,-0.02298
6.3080,-0.02326
6.3120,-0.02354
6.3160,-0.02381
6.3200,-0.02409
6.3240,-0.02436
6.3280,-0.02464
6.3320,-0.02491
6.3360,-0.02518
6.3400,-0.02545
6.3440,-0.02572
6.3480,-0.02599
6.3520,-0.02626
6.3560,-0.02653
6.3600,-0.02679
6.3640,-0.02706
6.3680,-0.02732
6.3720,-0.02758
6.3760,-0.02784
6.3800,-0.02810
6.3840,-0.02836
6.3880,-0.02862
6.3920,-0.02888
6.3960,-0.02913
6.4000,-0.02939
6.4040,-0.02964
6.4080,-0.02990
6.4120,-0.03015
6.4160,-0.03040
6.4200,-0.03065
6.4240,-0.03089
6.4280,-0.03114
6.4320,-0.03138
6.4360,-0.03163
6.4400,-0.03187
6.4440,-0.03211
6.4480,-0.03235
6.4520,-0.03259
6.4560,-0.03283
6.4600,-0.03306
6.4640,-0.03326
6.4680,-0.03320
6.4720,-0.03158
6.4760,-0.02289
6.4800,0.00971
6.4840,0.10088
6.4880,0.28997
6.4920,0.57162
6.4960,0.84736
6.5000,0.96464
6.5040,0.84692
6.5080,0.57073
6.5120,0.28864
6.5160,0.09910
6.5200,0.00749
6.5240,-0.02555
6.5280,-0.03469
6.5320,-0.03675
6.5360,-0.03726
6.5400,-0.03750
6.5440,-0.03771
6.5480,-0.03792
6.5520,-0.03812
6.5560,-0.03832
6.5600,-0.03853
6.5640,-0.03873
6.5680,-0.03892
6.5720,-0.03912
6.5760,-0.03931
6.5800,-0.03951
6.5840,-0.03970
6.5880,-0.03989
6.5920,-0.04008
6.5960,-0.04027
6.6000,-0.04045
6.6040,-0.04063
6.6080,-0.04082
6.6120,-0.04100
6.6160,-0.04118
6.6200,-0.04135
6.6240,-0.04153
6.6280,-0.04170
6.6320,-0.04188
6.6360,-0.04205
6.6400,-0.04222
6.6440,-0.04238
6.6480,-0.04255
6.6520,-0.04271
6.6560,-0.04288
6.6600,-0.04304
6.6640,-0.04320
6.6680,-0.04335
6.6720,-0.04351
6.6760,-0.04366
6.6800,-0.04382
6.6840,-0.04397
6.6880,-0.04411
6.6920,-0.04426
6.6960,-0.04441
6.7000,-0.04455
6.7040,-0.04469
6.7080,-0.04483
6.7120,-0.04497
6.7160,-0.04511
6.7200,-0.04524
6.7240,-0.04537
6.7280,-0.04551
6.7320,-0.04563
6.7360,-0.04576
6.7400,-0.04589
6.7440,-0.04601
6.7480,-0.04613
6.7520,-0.04625
6.7560,-0.04637
6.7600,-0.04649
6.7640,-0.04660
6.7680,-0.04672
6.7720,-0.04683
6.7760,-0.04694
6.7800,-0.04704
6.7840,-0.04715
6.7880,-0.04725
6.7920,-0.04735
6.7960,-0.04745
6.8000,-0.04755
6.8040,-0.04765
6.8080,-0.04774
6.8120,-0.04784
6.8160,-0.04793
6.8200,-0.04801
6.8240,-0.04810
6.8280,-0.04819
6.8320,-0.04827
6.8360,-0.04835
6.8400,-0.04843
6.8440,-0.04851
6.8480,-0.04858
6.8520,-0.04865
6.8560,-0.04873
6.8600,-0.04880
6.8640,-0.04886
6.8680,-0.04893
6.8720,-0.04899
6.8760,-0.04905
6.8800,-0.04911
6.8840,-0.04917
6.8880,-0.04923
6.8920,-0.04928
6.8960,-0.04933
6.9000,-0.04938
6.9040,-0.04943
6.9080,-0.04948
6.9120,-0.04952
6.9160,-0.04957
6.9200,-0.04961
6.9240,-0.04964
6.9280,-0.04968
6.9320,-0.04972
6.9360,-0.04975
6.9400,-0.04978
6.9440,-0.04981
6.9480,-0.04983
6.9520,-0.04986
6.9560,-0.04988
6.9600,-0.04990
6.9640,-0.04992
6.9680,-0.04994
6.9720,-0.04995
6.9760,-0.04996
6.9800,-0.04998
6.9840,-0.04998
6.9880,-0.04999
6.9920,-0.05000
6.9960,-0.05000
7.0000,-0.05000
7.0040,-0.05000
7.0080,-0.05000
7.0120,-0.04999
7.0160,-0.04998
7.0200,-0.04998
7.0240,-0.04996
7.0280,-0.04995
7.0320,-0.04994
7.0360,-0.04992
7.0400,-0.04990
7.0440,-0.04988
7.0480,-0.04986
7.0520,-0.04983
7.0560,-0.04981
7.0600,-0.04978
7.0640,-0.04975
7.0680,-0.04972
7.0720,-0.04968
7.0760,-0.04964
7.0800,-0.04961
7.0840,-0.04957
7.0880,-0.04952
7.0920,-0.04948
7.0960,-0.04943
7.1000,-0.04938
7.1040,-0.04933
7.1080,-0.04928
7.1120,-0.04923
7.1160,-0.04917
7.1200,-0.04911
7.1240,-0.04905
7.1280,-0.04899
7.1320,-0.04893
7.1360,-0.04886
7.1400,-0.04880
7.1440,-0.04873
7.1480,-0.04865
7.1520,-0.04858
7.1560,-0.04851
7.1600,-0.04843
7.1640,-0.04835
7.1680,-0.04827
7.1720,-0.04819
7.1760,-0.04810
7.1800,-0.04801
7.1840,-0.04793
7.1880,-0.04784
7.1920,-0.04774
7.1960,-0.04765
7.2000,-0.04755
7.2040,-0.04745
7.2080,-0.04735
7.2120,-0.04725
7.2160,-0.04715
7.2200,-0.04704
7.2240,-0.04694
7.2280,-0.04683
7.2320,-0.04672
7.2360,-0.04660
7.2400,-0.04649
7.2440,-0.04637
7.2480,-0.04625
7.2520,-0.04613
7.2560,-0.04601
7.2600,-0.04589
7.2640,-0.04576
7.2680,-0.04563
7.2720,-0.04551
7.2760,-0.04537
7.2800,-0.04524
7.2840,-0.04511
7.2880,-0.04497
7.2920,-0.04483
7.2960,-0.04469
7.3000,-0.04455
7.3040,-0.04441
7.3080,-0.04426
7.3120,-0.04411
7.3160,-0.04397
7.3200,-0.04382
7.3240,-0.04366
7.3280,-0.04351
7.3320,-0.04335
7.3360,-0.04320
7.3400,-0.04304
7.3440,-0.04288
7.3480,-0.04271
7.3520,-0.04255
7.3560,-0.04238
7.3600,-0.04222
7.3640,-0.04205
7.3680,-0.04188
7.3720,-0.04170
7.3760,-0.04153
7.3800,-0.04135
7.3840,-0.04118
7.3880,-0.04100
7.3920,-0.04082
7.3960,-0.04063
7.4000,-0.04045
7.4040,-0.04027
7.4080,-0.04008
7.4120,-0.03989
7.4160,-0.03970
7.4200,-0.03951
7.4240,-0.03931
7.4280,-0.03912
7.4320,-0.03892
7.4360,-0.03873
7.4400,-0.03853
7.4440,-0.03832
7.4480,-0.03812
7.4520,-0.03792
7.4560,-0.03771
7.4600,-0.03750
7.4640,-0.03726
7.4680,-0.03675
7.4720,-0.03469
7.4760,-0.02555
7.4800,0.00749
7.4840,0.09910
7.4880,0.28864
7.4920,0.57073
7.4960,0.84692
7.5000,0.96464
7.5040,0.84736
7.5080,0.57162
7.5120,0.28997
7.5160,0.10088
7.5200,0.00971
7.5240,-0.02289
7.5280,-0.03158
7.5320,-0.03320
7.5360,-0.03326
7.5400,-0.03306
7.5440,-0.03283
7.5480,-0.03259
7.5520,-0.03235
7.5560,-0.03211
7.5600,-0.03187
7.5640,-0.03163
7.5680,-0.03138
7.5720,-0.03114
7.5760,-0.03089
7.5800,-0.03065
7.5840,-0.03040
7.5880,-0.03015
7.5920,-0.02990
7.5960,-0.02964
7.6000,-0.02939
7.6040,-0.02913
7.6080,-0.02888
7.6120,-0.02862
7.6160,-0.02836
7.6200,-0.02810
7.6240,-0.02784
7.6280,-0.02758
7.6320,-0.02732
7.6360,-0.02706
7.6400,-0.02679
7.6440,-0.02653
7.6480,-0.02626
7.6520,-0.02599
7.6560,-0.02572
7.6600,-0.02545
7.6640,-0.02518
7.6680,-0.02491
7.6720,-0.02464
7.6760,-0.02436
7.6800,-0.02409
7.6840,-0.02381
7.6880,-0.02354
7.6920,-0.02326
7.6960,-0.02298
7.7000,-0.02270
7.7040,-0.02242
7.7080,-0.02214
7.7120,-0.02186
7.7160,-0.02157
7.7200,-0.02129
7.7240,-0.02100
7.7280,-0.02072
7.7320,-0.02043
7.7360,-0.02015
7.7400,-0.01986
7.7440,-0.01957
7.7480,-0.01928
7.7520,-0.01899
7.7560,-0.01870
7.7600,-0.01841
7.7640,-0.01811
7.7680,-0.01782
7.7720,-0.01753
7.7760,-0.01723
7.7800,-0.01694
7.7840,-0.01664
7.7880,-0.01634
7.7920,-0.01605
7.7960,-0.01575
7.8000,-0.01545
7.8040,-0.01515
7.8080,-0.01485
7.8120,-0.01455
7.8160,-0.01425
7.8200,-0.01395
7.8240,-0.01365
7.8280,-0.01335
7.8320,-0.01304
7.8360,-0.01274
7.8400,-0.01243
7.8440,-0.01213
7.8480,-0.01182
7.8520,-0.01152
7.8560,-0.01121
7.8600,-0.01091
7.8640,-0.01060
7.8680,-0.01029
7.8720,-0.00999
7.8760,-0.00968
7.8800,-0.00937
7.8840,-0.00906
7.8880,-0.00875
7.8920,-0.00844
7.8960,-0.00813
7.9000,-0.00782
7.9040,-0.00751
7.9080,-0.00720
7.9120,-0.00689
7.9160,-0.00658
7.9200,-0.00627
7.9240,-0.00595
7.9280,-0.00564
7.9320,-0.00533
7.9360,-0.00502
7.9400,-0.00471
7.9440,-0.00439
7.9480,-0.00408
7.9520,-0.00377
7.9560,-0.00345
7.9600,-0.00314
7.9640,-0.00283
7.9680,-0.00251
7.9720,-0.00220
7.9760,-0.00188
7.9800,-0.00157
7.9840,-0.00126
7.9880,-0.00094
7.9920,-0.00063
7.9960,-0.00031
8.0000,-0.00000
8.0040,0.00031
8.0080,0.00063
8.0120,0.00094
8.0160,0.00126
8.0200,0.00157
8.0240,0.00188
8.0280,0.00220
8.0320,0.00251
8.0360,0.00283
8.0400,0.00314
8.0440,0.00345
8.0480,0.00377
8.0520,0.00408
8.0560,0.00439
8.0600,0.00471
8.0640,0.00502
8.0680,0.00533
8.0720,0.00564
8.0760,0.00595
8.0800,0.00627
8.0840,0.00658
8.0880,0.00689
8.0920,0.00720
8.0960,0.00751
8.1000,0.00782
8.1040,0.00813
8.1080,0.00844
8.1120,0.00875
8.1160,0.00906
8.1200,0.00937
8.1240,0.00968
8.1280,0.00999
8.1320,0.01029
8.1360,0.01060
8.1400,0.01091
8.1440,0.01121
8.1480,0.01152
8.1520,0.01182
8.1560,0.01213
8.1600,0.01243
8.1640,0.01274
8.1680,0.01304
8.1720,0.01335
8.1760,0.01365
8.1800,0.01395
8.1840,0.01425
8.1880,0.01455
8.1920,0.01485
8.1960,0.01515
8.2000,0.01545
8.2040,0.01575
8.2080,0.01605
8.2120,0.01634
8.2160,0.01664
8.2200,0.01694
8.2240,0.01723
8.2280,0.01753
8.2320,0.01782
8.2360,0.01811
8.2400,0.01841
8.2440,0.01870
8.2480,0.01899
8.2520,0.01928
8.2560,0.01957
8.2600,0.01986
8.2640,0.02015
8.2680,0.02043
8.2720,0.02072
8.2760,0.02100
8.2800,0.02129
8.2840,0.02157
8.2880,0.02186
8.2920,0.02214
8.2960,0.02242
8.3000,0.02270
8.3040,0.02298
8.3080,0.02326
8.3120,0.02354
8.3160,0.02381
8.3200,0.02409
8.3240,0.02436
8.3280,0.02464
8.3320,0.02491
8.3360,0.02518
8.3400,0.02545
8.3440,0.02572
8.3480,0.02599
8.3520,0.02626
8.3560,0.02653
8.3600,0.02679
8.3640,0.02706
8.3680,0.02732
8.3720,0.02758
8.3760,0.02784
8.3800,0.02810
8.3840,0.02836
8.3880,0.02862
8.3920,0.02888
8.3960,0.02913
8.4000,0.02939
8.4040,0.02964
8.4080,0.02990
8.4120,0.03015
8.4160,0.03040
8.4200,0.03065
8.4240,0.03089
8.4280,0.03114
8.4320,0.03138
8.4360,0.03163
8.4400,0.03187
8.4440,0.03211
8.4480,0.03235
8.4520,0.03259
8.4560,0.03283
8.4600,0.03307
8.4640,0.03334
8.4680,0.03387
8.4720,0.03595
8.4760,0.04511
8.4800,0.07816
8.4840,0.16979
8.4880,0.35934
8.4920,0.64144
8.4960,0.91763
8.5000,1.03536
8.5040,0.91807
8.5080,0.64233
8.5120,0.36067
8.5160,0.17157
8.5200,0.08039
8.5240,0.04777
8.5280,0.03906
8.5320,0.03742
8.5360,0.03734
8.5400,0.03751
8.5440,0.03771
8.5480,0.03792
8.5520,0.03812
8.5560,0.03832
8.5600,0.03853
8.5640,0.03873
8.5680,0.03892
8.5720,0.03912
8.5760,0.03931
8.5800,0.03951
8.5840,0.03970
8.5880,0.03989
8.5920,0.04008
8.5960,0.04027
8.6000,0.04045
8.6040,0.04063
8.6080,0.04082
8.6120,0.04100
8.6160,0.04118
8.6200,0.04135
8.6240,0.04153
8.6280,0.04170
8.6320,0.04188
8.6360,0.04205
8.6400,0.04222
8.6440,0.04238
8.6480,0.04255
8.6520,0.04271
8.6560,0.04288
8.6600,0.04304
8.6640,0.04320
8.6680,0.04335
8.6720,0.04351
8.6760,0.04366
8.6800,0.04382
8.6840,0.04397
8.6880,0.04411
8.6920,0.04426
8.6960,0.04441
8.7000,0.04455
8.7040,0.04469
8.7080,0.04483
8.7120,0.04497
8.7160,0.04511
8.7200,0.04524
8.7240,0.04537
8.7280,0.04551
8.7320,0.04563
8.7360,0.04576
8.7400,0.04589
8.7440,0.04601
8.7480,0.04613
8.7520,0.04625
8.7560,0.04637
8.7600,0.04649
8.7640,0.04660
8.7680,0.04672
8.7720,0.04683
8.7760,0.04694
8.7800,0.04704
8.7840,0.04715
8.7880,0.04725
8.7920,0.04735
8.7960,0.04745
8.8000,0.04755
8.8040,0.04765
8.8080,0.04774
8.8120,0.04784
8.8160,0.04793
8.8200,0.04801
8.8240,0.04810
8.8280,0.04819
8.8320,0.04827
8.8360,0.04835
8.8400,0.04843
8.8440,0.04851
8.8480,0.04858
8.8520,0.04865
8.8560,0.04873
8.8600,0.04880
8.8640,0.04886
8.8680,0.04893
8.8720,0.04899
8.8760,0.04905
8.8800,0.04911
8.8840,0.04917
8.8880,0.04923
8.8920,0.04928
8.8960,0.04933
8.9000,0.04938
8.9040,0.04943
8.9080,0.04948
8.9120,0.04952
8.9160,0.04957
8.9200,0.04961
8.9240,0.04964
8.9280,0.04968
8.9320,0.04972
8.9360,0.04975
8.9400,0.04978
8.9440,0.04981
8.9480,0.04983
8.9520,0.04986
8.9560,0.04988
8.9600,0.04990
8.9640,0.04992
8.9680,0.04994
8.9720,0.04995
8.9760,0.04996
8.9800,0.04998
8.9840,0.04998
8.9880,0.04999
8.9920,0.05000
8.9960,0.05000
9.0000,0.05000
9.0040,0.05000
9.0080,0.05000
9.0120,0.04999
9.0160,0.04998
9.0200,0.04998
9.0240,0.04996
9.0280,0.04995
9.0320,0.04994
9.0360,0.04992
9.0400,0.04990
9.0440,0.04988
9.0480,0.04986
9.0520,0.04983
9.0560,0.04981
9.0600,0.04978
9.0640,0.04975
9.0680,0.04972
9.0720,0.04968
9.0760,0.04964
9.0800,0.04961
9.0840,0.04957
9.0880,0.04952
9.0920,0.04948
9.0960,0.04943
9.1000,0.04938
9.1040,0.04933
9.1080,0.04928
9.1120,0.04923
9.1160,0.04917
9.1200,0.04911
9.1240,0.04905
9.1280,0.04899
9.1320,0.04893
9.1360,0.04886
9.1400,0.04880
9.1440,0.04873
9.1480,0.04865
9.1520,0.04858
9.1560,0.04851
9.1600,0.04843
9.1640,0.04835
9.1680,0.04827
9.1720,0.04819
9.1760,0.04810
9.1800,0.04801
9.1840,0.04793
9.1880,0.04784
9.1920,0.04774
9.1960,0.04765
9.2000,0.04755
9.2040,0.04745
9.2080,0.04735
9.2120,0.04725
9.2160,0.04715
9.2200,0.04704
9.2240,0.04694
9.2280,0.04683
9.2320,0.04672
9.2360,0.04660
9.2400,0.04649
9.2440,0.04637
9.2480,0.04625
9.2520,0.04613
9.2560,0.04601
9.2600,0.04589
9.2640,0.04576
9.2680,0.04563
9.2720,0.04551
9.2760,0.04537
9.2800,0.04524
9.2840,0.04511
9.2880,0.04497
9.2920,0.04483
9.2960,0.04469
9.3000,0.04455
9.3040,0.04441
9.3080,0.04426
9.3120,0.04411
9.3160,0.04397
9.3200,0.04382
9.3240,0.04366
9.3280,0.04351
9.3320,0.04335
9.3360,0.04320
9.3400,0.04304
9.3440,0.04288
9.3480,0.04271
9.3520,0.04255
9.3560,0.04238
9.3600,0.04222
9.3640,0.04205
9.3680,0.04188
9.3720,0.04170
9.3760,0.04153
9.3800,0.04135
9.3840,0.04118
9.3880,0.04100
9.3920,0.04082
9.3960,0.04063
9.4000,0.04045
9.4040,0.04027
9.4080,0.04008
9.4120,0.03989
9.4160,0.03970
9.4200,0.03951
9.4240,0.03931
9.4280,0.03912
9.4320,0.03892
9.4360,0.03873
9.4400,0.03853
9.4440,0.03832
9.4480,0.03812
9.4520,0.03792
9.4560,0.03771
9.4600,0.03751
9.4640,0.03734
9.4680,0.03742
9.4720,0.03906
9.4760,0.04777
9.4800,0.08039
9.4840,0.17157
9.4880,0.36067
9.4920,0.64233
9.4960,0.91807
9.5000,1.03536
9.5040,0.91763
9.5080,0.64144
9.5120,0.35934
9.5160,0.16979
9.5200,0.07816
9.5240,0.04511
9.5280,0.03595
9.5320,0.03387
9.5360,0.03334
9.5400,0.03307
9.5440,0.03283
9.5480,0.03259
9.5520,0.03235
9.5560,0.03211
9.5600,0.03187
9.5640,0.03163
9.5680,0.03138
9.5720,0.03114
9.5760,0.03089
9.5800,0.03065
9.5840,0.03040
9.5880,0.03015
9.5920,0.02990
9.5960,0.02964
9.6000,0.02939
9.6040,0.02913
9.6080,0.02888
9.6120,0.02862
9.6160,0.02836
9.6200,0.02810
9.6240,0.02784
9.6280,0.02758
9.6320,0.02732
9.6360,0.02706
9.6400,0.02679
9.6440,0.02653
9.6480,0.02626
9.6520,0.02599
9.6560,0.02572
9.6600,0.02545
9.6640,0.02518
9.6680,0.02491
9.6720,0.02464
9.6760,0.02436
9.6800,0.02409
9.6840,0.02381
9.6880,0.02354
9.6920,0.02326
9.6960,0.02298
9.7000,0.02270
9.7040,0.02242
9.7080,0.02214
9.7120,0.02186
9.7160,0.02157
9.7200,0.02129
9.7240,0.02100
9.7280,0.02072
9.7320,0.02043
9.7360,0.02015
9.7400,0.01986
9.7440,0.01957
9.7480,0.01928
9.7520,0.01899
9.7560,0.01870
9.7600,0.01841
9.7640,0.01811
9.7680,0.01782
9.7720,0.01753
9.7760,0.01723
9.7800,0.01694
9.7840,0.01664
9.7880,0.01634
9.7920,0.01605
9.7960,0.01575
9.8000,0.01545
9.8040,0.01515
9.8080,0.01485
9.8120,0.01455
9.8160,0.01425
9.8200,0.01395
9.8240,0.01365
9.8280,0.01335
9.8320,0.01304
9.8360,0.01274
9.8400,0.01243
9.8440,0.01213
9.8480,0.01182
9.8520,0.01152
9.8560,0.01121
9.8600,0.01091
9.8640,0.01060
9.8680,0.01029
9.8720,0.00999
9.8760,0.00968
9.8800,0.00937
9.8840,0.00906
9.8880,0.00875
9.8920,0.00844
9.8960,0.00813
9.9000,0.00782
9.9040,0.00751
9.9080,0.00720
9.9120,0.00689
9.9160,0.00658
9.9200,0.00627
9.9240,0.00595
9.9280,0.00564
9.9320,0.00533
9.9360,0.00502
9.9400,0.00471
9.9440,0.00439
9.9480,0.00408
9.9520,0.00377
9.9560,0.00345
9.9600,0.00314
9.9640,0.00283
9.9680,0.00251
9.9720,0.00220
9.9760,0.00188
9.9800,0.00157
9.9840,0.00126
9.9880,0.00094
9.9920,0.00063
9.9960,0.00031
10.0000,0.00000
10.0040,-0.00031
10.0080,-0.00063
10.0120,-0.00094
10.0160,-0.00126
10.0200,-0.00157
10.0240,-0.00188
10.0280,-0.00220
10.0320,-0.00251
10.0360,-0.00283
10.0400,-0.00314
10.0440,-0.00345
10.0480,-0.00377
10.0520,-0.00408
10.0560,-0.00439
10.0600,-0.00471
10.0640,-0.00502
10.0680,-0.00533
10.0720,-0.00564
10.0760,-0.00595
10.0800,-0.00627
10.0840,-0.00658
10.0880,-0.00689
10.0920,-0.00720
10.0960,-0.00751
10.1000,-0.00782
10.1040,-0.00813
10.1080,-0.00844
10.1120,-0.00875
10.1160,-0.00906
10.1200,-0.00937
10.1240,-0.00968
10.1280,-0.00999
10.1320,-0.01029
10.1360,-0.01060
10.1400,-0.01091
10.1440,-0.01121
10.1480,-0.01152
10.1520,-0.01182
10.1560,-0.01213
10.1600,-0.01243
10.1640,-0.01274
10.1680,-0.01304
10.1720,-0.01335
10.1760,-0.01365
10.1800,-0.01395
10.1840,-0.01425
10.1880,-0.01455
10.1920,-0.01485
10.1960,-0.01515
10.2000,-0.01545
10.2040,-0.01575
10.2080,-0.01605
10.2120,-0.01634
10.2160,-0.01664
10.2200,-0.01694
10.2240,-0.01723
10.2280,-0.01753
10.2320,-0.01782
10.2360,-0.01811
10.2400,-0.01841
10.2440,-0.01870
10.2480,-0.01899
10.2520,-0.01928
10.2560,-0.01957
10.2600,-0.01986
10.2640,-0.02015
10.2680,-0.02043
10.2720,-0.02072
10.2760,-0.02100
10.2800,-0.02129
10.2840,-0.02157
10.2880,-0.02186
10.2920,-0.02214
10.2960,-0.02242
10.3000,-0.02270
10.3040,-0.02298
10.3080,-0.02326
10.3120,-0.02354
10.3160,-0.02381
10.3200,-0.02409
10.3240,-0.02436
10.3280,-0.02464
10.3320,-0.02491
10.3360,-0.02518
10.3400,-0.02545
10.3440,-0.02572
10.3480,-0.02599
10.3520,-0.02626
10.3560,-0.02653
10.3600,-0.02679
10.3640,-0.02706
10.3680,-0.02732
10.3720,-0.02758
10.3760,-0.02784
10.3800,-0.02810
10.3840,-0.02836
10.3880,-0.02862
10.3920,-0.02888
10.3960,-0.02913
10.4000,-0.02939
10.4040,-0.02964
10.4080,-0.02990
10.4120,-0.03015
10.4160,-0.03040
10.4200,-0.03065
10.4240,-0.03089
10.4280,-0.03114
10.4320,-0.03138
10.4360,-0.03163
10.4400,-0.03187
10.4440,-0.03211
10.4480,-0.03235
10.4520,-0.03259
10.4560,-0.03283
10.4600,-0.03306
10.4640,-0.03326
10.4680,-0.03320
10.4720,-0.03158
10.4760,-0.02289
10.4800,0.00971
10.4840,0.10088
10.4880,0.28997
10.4920,0.57162
10.4960,0.84736
10.5000,0.96464
10.5040,0.84692
10.5080,0.57073
10.5120,0.28864
10.5160,0.09910
10.5200,0.00749
10.5240,-0.02555
10.5280,-0.03469
10.5320,-0.03675
10.5360,-0.03726
10.5400,-0.03750
10.5440,-0.03771
10.5480,-0.03792
10.5520,-0.03812
10.5560,-0.03832
10.5600,-0.03853
10.5640,-0.03873
10.5680,-0.03892
10.5720,-0.03912
10.5760,-0.03931
10.5800,-0.03951
10.5840,-0.03970
10.5880,-0.03989
10.5920,-0.04008
10.5960,-0.04027
10.6000,-0.04045
10.6040,-0.04063
10.6080,-0.04082
10.6120,-0.04100
10.6160,-0.04118
10.6200,-0.04135
10.6240,-0.04153
10.6280,-0.04170
10.6320,-0.04188
10.6360,-0.04205
10.6400,-0.04222
10.6440,-0.04238
10.6480,-0.04255
10.6520,-0.04271
10.6560,-0.04288
10.6600,-0.04304
10.6640,-0.04320
10.6680,-0.04335
10.6720,-0.04351
10.6760,-0.04366
10.6800,-0.04382
10.6840,-0.04397
10.6880,-0.04411
10.6920,-0.04426
10.6960,-0.04441
10.7000,-0.04455
10.7040,-0.04469
10.7080,-0.04483
10.7120,-0.04497
10.7160,-0.04511
10.7200,-0.04524
10.7240,-0.04537
10.7280,-0.04551
10.7320,-0.04563
10.7360,-0.04576
10.7400,-0.04589
10.7440,-0.04601
10.7480,-0.04613
10.7520,-0.04625
10.7560,-0.04637
10.7600,-0.04649
10.7640,-0.04660
10.7680,-0.04672
10.7720,-0.04683
10.7760,-0.04694
10.7800,-0.04704
10.7840,-0.04715
10.7880,-0.04725
10.7920,-0.04735
10.7960,-0.04745
10.8000,-0.04755
10.8040,-0.04765
10.8080,-0.04774
10.8120,-0.04784
10.8160,-0.04793
10.8200,-0.04801
10.8240,-0.04810
10.8280,-0.04819
10.8320,-0.04827
10.8360,-0.04835
10.8400,-0.04843
10.8440,-0.04851
10.8480,-0.04858
10.8520,-0.04865
10.8560,-0.04873
10.8600,-0.04880
10.8640,-0.04886
10.8680,-0.04893
10.8720,-0.04899
10.8760,-0.04905
10.8800,-0.04911
10.8840,-0.04917
10.8880,-0.04923
10.8920,-0.04928
10.8960,-0.04933
10.9000,-0.04938
10.9040,-0.04943
10.9080,-0.04948
10.9120,-0.04952
10.9160,-0.04957
10.9200,-0.04961
10.9240,-0.04964
10.9280,-0.04968
10.9320,-0.04972
10.9360,-0.04975
10.9400,-0.04978
10.9440,-0.04981
10.9480,-0.04983
10.9520,-0.04986
10.9560,-0.04988
10.9600,-0.04990
10.9640,-0.04992
10.9680,-0.04994
10.9720,-0.04995
10.9760,-0.04996
10.9800,-0.04998
10.9840,-0.04998
10.9880,-0.04999
10.9920,-0.05000
10.9960,-0.05000
11.0000,-0.05000
11.0040,-0.05000
11.0080,-0.05000
11.0120,-0.04999
11.0160,-0.04998
11.0200,-0.04998
11.0240,-0.04996
11.0280,-0.04995
11.0320,-0.04994
11.0360,-0.04992
11.0400,-0.04990
11.0440,-0.04988
11.0480,-0.04986
11.0520,-0.04983
11.0560,-0.04981
11.0600,-0.04978
11.0640,-0.04975
11.0680,-0.04972
11.0720,-0.04968
11.0760,-0.04964
11.0800,-0.04961
11.0840,-0.04957
11.0880,-0.04952
11.0920,-0.04948
11.0960,-0.04943
11.1000,-0.04938
11.1040,-0.04933
11.1080,-0.04928
11.1120,-0.04923
11.1160,-0.04917
11.1200,-0.04911
11.1240,-0.04905
11.1280,-0.04899
11.1320,-0.04893
11.1360,-0.04886
11.1400,-0.04880
11.1440,-0.04873
11.1480,-0.04865
11.1520,-0.04858
11.1560,-0.04851
11.1600,-0.04843
11.1640,-0.04835
11.1680,-0.04827
11.1720,-0.04819
11.1760,-0.04810
11.1800,-0.04801
11.1840,-0.04793
11.1880,-0.04784
11.1920,-0.04774
11.1960,-0.04765
11.2000,-0.04755
11.2040,-0.04745
11.2080,-0.04735
11.2120,-0.04725
11.2160,-0.04715
11.2200,-0.04704
11.2240,-0.04694
11.2280,-0.04683
11.2320,-0.04672
11.2360,-0.04660
11.2400,-0.04649
11.2440,-0.04637
11.2480,-0.04625
11.2520,-0.04613
11.2560,-0.04601
11.2600,-0.04589
11.2640,-0.04576
11.2680,-0.04563
11.2720,-0.04551
11.2760,-0.04537
11.2800,-0.04524
11.2840,-0.04511
11.2880,-0.04497
11.2920,-0.04483
11.2960,-0.04469
11.3000,-0.04455
11.3040,-0.04441
11.3080,-0.04426
11.3120,-0.04411
11.3160,-0.04397
11.3200,-0.04382
11.3240,-0.04366
11.3280,-0.04351
11.3320,-0.04335
11.3360,-0.04320
11.3400,-0.04304
11.3440,-0.04288
11.3480,-0.04271
11.3520,-0.04255
11.3560,-0.04238
11.3600,-0.04222
11.3640,-0.04205
11.3680,-0.04188
11.3720,-0.04170
11.3760,-0.04153
11.3800,-0.04135
11.3840,-0.04118
11.3880,-0.04100
11.3920,-0.04082
11.3960,-0.04063
11.4000,-0.04045
11.4040,-0.04027
11.4080,-0.04008
11.4120,-0.03989
11.4160,-0.03970
11.4200,-0.03951
11.4240,-0.03931
11.4280,-0.03912
11.4320,-0.03892
11.4360,-0.03873
11.4400,-0.03853
11.4440,-0.03832
11.4480,-0.03812
11.4520,-0.03792
11.4560,-0.03771
11.4600,-0.03750
11.4640,-0.03726
11.4680,-0.03675
11.4720,-0.03469
11.4760,-0.02555
11.4800,0.00749
11.4840,0.09910
11.4880,0.28864
11.4920,0.57073
11.4960,0.84692
11.5000,0.96464
11.5040,0.84736
11.5080,0.57162
11.5120,0.28997
11.5160,0.10088
11.5200,0.00971
11.5240,-0.02289
11.5280,-0.03158
11.5320,-0.03320
11.5360,-0.03326
11.5400,-0.03306
11.5440,-0.03283
11.5480,-0.03259
11.5520,-0.03235
11.5560,-0.03211
11.5600,-0.03187
11.5640,-0.03163
11.5680,-0.03138
11.5720,-0.03114
11.5760,-0.03089
11.5800,-0.03065
11.5840,-0.03040
11.5880,-0.03015
11.5920,-0.02990
11.5960,-0.02964
11.6000,-0.02939
11.6040,-0.02913
11.6080,-0.02888
11.6120,-0.02862
11.6160,-0.02836
11.6200,-0.02810
11.6240,-0.02784
11.6280,-0.02758
11.6320,-0.02732
11.6360,-0.02706
11.6400,-0.02679
11.6440,-0.02653
11.6480,-0.02626
11.6520,-0.02599
11.6560,-0.02572
11.6600,-0.02545
11.6640,-0.02518
11.6680,-0.02491
11.6720,-0.02464
11.6760,-0.02436
11.6800,-0.02409
11.6840,-0.02381
11.6880,-0.02354
11.6920,-0.02326
11.6960,-0.02298
11.7000,-0.02270
11.7040,-0.02242
11.7080,-0.02214
11.7120,-0.02186
11.7160,-0.02157
11.7200,-0.02129
11.7240,-0.02100
11.7280,-0.02072
11.7320,-0.02043
11.7360,-0.02015
11.7400,-0.01986
11.7440,-0.01957
11.7480,-0.01928
11.7520,-0.01899
11.7560,-0.01870
11.7600,-0.01841
11.7640,-0.01811
11.7680,-0.01782
11.7720,-0.01753
11.7760,-0.01723
11.7800,-0.01694
11.7840,-0.01664
11.7880,-0.01634
11.7920,-0.01605
11.7960,-0.01575
11.8000,-0.01545
11.8040,-0.01515
11.8080,-0.01485
11.8120,-0.01455
11.8160,-0.01425
11.8200,-0.01395
11.8240,-0.01365
11.8280,-0.01335
11.8320,-0.01304
11.8360,-0.01274
11.8400,-0.01243
11.8440,-0.01213
11.8480,-0.01182
11.8520,-0.01152
11.8560,-0.01121
11.8600,-0.01091
11.8640,-0.01060
11.8680,-0.01029
11.8720,-0.00999
11.8760,-0.00968
11.8800,-0.00937
11.8840,-0.00906
11.8880,-0.00875
11.8920,-0.00844
11.8960,-0.00813
11.9000,-0.00782
11.9040,-0.00751
11.9080,-0.00720
11.9120,-0.00689
11.9160,-0.00658
11.9200,-0.00627
11.9240,-0.00595
11.9280,-0.00564
11.9320,-0.00533
11.9360,-0.00502
11.9400,-0.00471
11.9440,-0.00439
11.9480,-0.00408
11.9520,-0.00377
11.9560,-0.00345
11.9600,-0.00314
11.9640,-0.00283
11.9680,-0.00251
11.9720,-0.00220
11.9760,-0.00188
11.9800,-0.00157
11.9840,-0.00126
11.9880,-0.00094
11.9920,-0.00063
11.9960,-0.00031
12.0000,-0.00000
12.0040,0.00031
12.0080,0.00063
12.0120,0.00094
12.0160,0.00126
12.0200,0.00157
12.0240,0.00188
12.0280,0.00220
12.0320,0.00251
12.0360,0.00283
12.0400,0.00314
12.0440,0.00345
12.0480,0.00377
12.0520,0.00408
12.0560,0.00439
12.0600,0.00471
12.0640,0.00502
12.0680,0.00533
12.0720,0.00564
12.0760,0.00595
12.0800,0.00627
12.0840,0.00658
12.0880,0.00689
12.0920,0.00720
12.0960,0.00751
12.1000,0.00782
12.1040,0.00813
12.1080,0.00844
12.1120,0.00875
12.1160,0.00906
12.1200,0.00937
12.1240,0.00968
12.1280,0.00999
12.1320,0.01029
12.1360,0.01060
12.1400,0.01091
12.1440,0.01121
12.1480,0.01152
12.1520,0.01182
12.1560,0.01213
12.1600,0.01243
12.1640,0.01274
12.1680,0.01304
12.1720,0.01335
12.1760,0.01365
12.1800,0.01395
12.1840,0.01425
12.1880,0.01455
12.1920,0.01485
12.1960,0.01515
12.2000,0.01545
12.2040,0.01575
12.2080,0.01605
12.2120,0.01634
12.2160,0.01664
12.2200,0.01694
12.2240,0.01723
12.2280,0.01753
12.2320,0.01782
12.2360,0.01811
12.2400,0.01841
12.2440,0.01870
12.2480,0.01899
12.2520,0.01928
12.2560,0.01957
12.2600,0.01986
12.2640,0.02015
12.2680,0.02043
12.2720,0.02072
12.2760,0.02100
12.2800,0.02129
12.2840,0.02157
12.2880,0.02186
12.2920,0.02214
12.2960,0.02242
12.3000,0.02270
12.3040,0.02298
12.3080,0.02326
12.3120,0.02354
12.3160,0.02381
12.3200,0.02409
12.3240,0.02436
12.3280,0.02464
12.3320,0.02491
12.3360,0.02518
12.3400,0.02545
12.3440,0.02572
12.3480,0.02599
12.3520,0.02626
12.3560,0.02653
12.3600,0.02679
12.3640,0.02706
12.3680,0.02732
12.3720,0.02758
12.3760,0.02784
12.3800,0.02810
12.3840,0.02836
12.3880,0.02862
12.3920,0.02888
12.3960,0.02913
12.4000,0.02939
12.4040,0.02964
12.4080,0.02990
12.4120,0.03015
12.4160,0.03040
12.4200,0.03065
12.4240,0.03089
12.4280,0.03114
12.4320,0.03138
12.4360,0.03163
12.4400,0.03187
12.4440,0.03211
12.4480,0.03235
12.4520,0.03259
12.4560,0.03283
12.4600,0.03307
12.4640,0.03334
12.4680,0.03387
12.4720,0.03595
12.4760,0.04511
12.4800,0.07816
12.4840,0.16979
12.4880,0.35934
12.4920,0.64144
12.4960,0.91763
12.5000,1.03536
12.5040,0.91807
12.5080,0.64233
12.5120,0.36067
12.5160,0.17157
12.5200,0.08039
12.5240,0.04777
12.5280,0.03906
12.5320,0.03742
12.5360,0.03734
12.5400,0.03751
12.5440,0.03771
12.5480,0.03792
12.5520,0.03812
12.5560,0.03832
12.5600,0.03853
12.5640,0.03873
12.5680,0.03892
12.5720,0.03912
12.5760,0.03931
12.5800,0.03951
12.5840,0.03970
12.5880,0.03989
12.5920,0.04008
12.5960,0.04027
12.6000,0.04045
12.6040,0.04063
12.6080,0.04082
12.6120,0.04100
12.6160,0.04118
12.6200,0.04135
12.6240,0.04153
12.6280,0.04170
12.6320,0.04188
12.6360,0.04205
12.6400,0.04222
12.6440,0.04238
12.6480,0.04255
12.6520,0.04271
12.6560,0.04288
12.6600,0.04304
12.6640,0.04320
12.6680,0.04335
12.6720,0.04351
12.6760,0.04366
12.6800,0.04382
12.6840,0.04397
12.6880,0.04411
12.6920,0.04426
12.6960,0.04441
12.7000,0.04455
12.7040,0.04469
12.7080,0.04483
12.7120,0.04497
12.7160,0.04511
12.7200,0.04524
12.7240,0.04537
12.7280,0.04551
12.7320,0.04563
12.7360,0.04576
12.7400,0.04589
12.7440,0.04601
12.7480,0.04613
12.7520,0.04625
12.7560,0.04637
12.7600,0.04649
12.7640,0.04660
12.7680,0.04672
12.7720,0.04683
12.7760,0.04694
12.7800,0.04704
12.7840,0.04715
12.7880,0.04725
12.7920,0.04735
12.7960,0.04745
12.8000,0.04755
12.8040,0.04765
12.8080,0.04774
12.8120,0.04784
12.8160,0.04793
12.8200,0.04801
12.8240,0.04810
12.8280,0.04819
12.8320,0.04827
12.8360,0.04835
12.8400,0.04843
12.8440,0.04851
12.8480,0.04858
12.8520,0.04865
12.8560,0.04873
12.8600,0.04880
12.8640,0.04886
12.8680,0.04893
12.8720,0.04899
12.8760,0.04905
12.8800,0.04911
12.8840,0.04917
12.8880,0.04923
12.8920,0.04928
12.8960,0.04933
12.9000,0.04938
12.9040,0.04943
12.9080,0.04948
12.9120,0.04952
12.9160,0.04957
12.9200,0.04961
12.9240,0.04964
12.9280,0.04968
12.9320,0.04972
12.9360,0.04975
12.9400,0.04978
12.9440,0.04981
12.9480,0.04983
12.9520,0.04986
12.9560,0.04988
12.9600,0.04990
12.9640,0.04992
12.9680,0.04994
12.9720,0.04995
12.9760,0.04996
12.9800,0.04998
12.9840,0.04998
12.9880,0.04999
12.9920,0.05000
12.9960,0.05000
13.0000,0.05000
13.0040,0.05000
13.0080,0.05000
13.0120,0.04999
13.0160,0.04998
13.0200,0.04998
13.0240,0.04996
13.0280,0.04995
13.0320,0.04994
13.0360,0.04992
13.0400,0.04990
13.0440,0.04988
13.0480,0.04986
13.0520,0.04983
13.0560,0.04981
13.0600,0.04978
13.0640,0.04975
13.0680,0.04972
13.0720,0.04968
13.0760,0.04964
13.0800,0.04961
13.0840,0.04957
13.0880,0.04952
13.0920,0.04948
13.0960,0.04943
13.1000,0.04938
13.1040,0.04933
13.1080,0.04928
13.1120,0.04923
13.1160,0.04917
13.1200,0.04911
13.1240,0.04905
13.1280,0.04899
13.1320,0.04893
13.1360,0.04886
13.1400,0.04880
13.1440,0.04873
13.1480,0.04865
13.1520,0.04858
13.1560,0.04851
13.1600,0.04843
13.1640,0.04835
13.1680,0.04827
13.1720,0.04819
13.1760,0.04810
13.1800,0.04801
13.1840,0.04793
13.1880,0.04784
13.1920,0.04774
13.1960,0.04765
13.2000,0.04755
13.2040,0.04745
13.2080,0.04735
13.2120,0.04725
13.2160,0.04715
13.2200,0.04704
13.2240,0.04694
13.2280,0.04683
13.2320,0.04672
13.2360,0.04660
13.2400,0.04649
13.2440,0.04637
13.2480,0.04625
13.2520,0.04613
13.2560,0.04601
13.2600,0.04589
13.2640,0.04576
13.2680,0.04563
13.2720,0.04551
13.2760,0.04537
13.2800,0.04524
13.2840,0.04511
13.2880,0.04497
13.2920,0.04483
13.2960,0.04469
13.3000,0.04455
13.3040,0.04441
13.3080,0.04426
13.3120,0.04411
13.3160,0.04397
13.3200,0.04382
13.3240,0.04366
13.3280,0.04351
13.3320,0.04335
13.3360,0.04320
13.3400,0.04304
13.3440,0.04288
13.3480,0.04271
13.3520,0.04255
13.3560,0.04238
13.3600,0.04222
13.3640,0.04205
13.3680,0.04188
13.3720,0.04170
13.3760,0.04153
13.3800,0.04135
13.3840,0.04118
13.3880,0.04100
13.3920,0.04082
13.3960,0.04063
13.4000,0.04045
13.4040,0.04027
13.4080,0.04008
13.4120,0.03989
13.4160,0.03970
13.4200,0.03951
13.4240,0.03931
13.4280,0.03912
13.4320,0.03892
13.4360,0.03873
13.4400,0.03853
13.4440,0.03832
13.4480,0.03812
13.4520,0.03792
13.4560,0.03771
13.4600,0.03751
13.4640,0.03734
13.4680,0.03742
13.4720,0.03906
13.4760,0.04777
13.4800,0.08039
13.4840,0.17157
13.4880,0.36067
13.4920,0.64233
13.4960,0.91807
13.5000,1.03536
13.5040,0.91763
13.5080,0.64144
13.5120,0.35934
13.5160,0.16979
13.5200,0.07816
13.5240,0.04511
13.5280,0.03595
13.5320,0.03387
13.5360,0.03334
13.5400,0.03307
13.5440,0.03283
13.5480,0.03259
13.5520,0.03235
13.5560,0.03211
13.5600,0.03187
13.5640,0.03163
13.5680,0.03138
13.5720,0.03114
13.5760,0.03089
13.5800,0.03065
13.5840,0.03040
13.5880,0.03015
13.5920,0.02990
13.5960,0.02964
13.6000,0.02939
13.6040,0.02913
13.6080,0.02888
13.6120,0.02862
13.6160,0.02836
13.6200,0.02810
13.6240,0.02784
13.6280,0.02758
13.6320,0.02732
13.6360,0.02706
13.6400,0.02679
13.6440,0.02653
13.6480,0.02626
13.6520,0.02599
13.6560,0.02572
13.6600,0.02545
13.6640,0.02518
13.6680,0.02491
13.6720,0.02464
13.6760,0.02436
13.6800,0.02409
13.6840,0.02381
13.6880,0.02354
13.6920,0.02326
13.6960,0.02298
13.7000,0.02270
13.7040,0.02242
13.7080,0.02214
13.7120,0.02186
13.7160,0.02157
13.7200,0.02129
13.7240,0.02100
13.7280,0.02072
13.7320,0.02043
13.7360,0.02015
13.7400,0.01986
13.7440,0.01957
13.7480,0.01928
13.7520,0.01899
13.7560,0.01870
13.7600,0.01841
13.7640,0.01811
13.7680,0.01782
13.7720,0.01753
13.7760,0.01723
13.7800,0.01694
13.7840,0.01664
13.7880,0.01634
13.7920,0.01605
13.7960,0.01575
13.8000,0.01545
13.8040,0.01515
13.8080,0.01485
13.8120,0.01455
13.8160,0.01425
13.8200,0.01395
13.8240,0.01365
13.8280,0.01335
13.8320,0.01304
13.8360,0.01274
13.8400,0.01243
13.8440,0.01213
13.8480,0.01182
13.8520,0.01152
13.8560,0.01121
13.8600,0.01091
13.8640,0.01060
13.8680,0.01029
13.8720,0.00999
13.8760,0.00968
13.8800,0.00937
13.8840,0.00906
13.8880,0.00875
13.8920,0.00844
13.8960,0.00813
13.9000,0.00782
13.9040,0.00751
13.9080,0.00720
13.9120,0.00689
13.9160,0.00658
13.9200,0.00627
13.9240,0.00595
13.9280,0.00564
13.9320,0.00533
13.9360,0.00502
13.9400,0.00471
13.9440,0.00439
13.9480,0.00408
13.9520,0.00377
13.9560,0.00345
13.9600,0.00314
13.9640,0.00283
13.9680,0.00251
13.9720,0.00220
13.9760,0.00188
13.9800,0.00157
13.9840,0.00126
13.9880,0.00094
13.9920,0.00063
13.9960,0.00031
14.0000,0.00000
14.0040,-0.00031
14.0080,-0.00063
14.0120,-0.00094
14.0160,-0.00126
14.0200,-0.00157
14.0240,-0.00188
14.0280,-0.00220
14.0320,-0.00251
14.0360,-0.00283
14.0400,-0.00314
14.0440,-0.00345
14.0480,-0.00377
14.0520,-0.00408
14.0560,-0.00439
14.0600,-0.00471
14.0640,-0.00502
14.0680,-0.00533
14.0720,-0.00564
14.0760,-0.00595
14.0800,-0.00627
14.0840,-0.00658
14.0880,-0.00689
14.0920,-0.00720
14.0960,-0.00751
14.1000,-0.00782
14.1040,-0.00813
14.1080,-0.00844
14.1120,-0.00875
14.1160,-0.00906
14.1200,-0.00937
14.1240,-0.00968
14.1280,-0.00999
14.1320,-0.01029
14.1360,-0.01060
14.1400,-0.01091
14.1440,-0.01121
14.1480,-0.01152
14.1520,-0.01182
14.1560,-0.01213
14.1600,-0.01243
14.1640,-0.01274
14.1680,-0.01304
14.1720,-0.01335
14.1760,-0.01365
14.1800,-0.01395
14.1840,-0.01425
14.1880,-0.01455
14.1920,-0.01485
14.1960,-0.01515
14.2000,-0.01545
14.2040,-0.01575
14.2080,-0.01605
14.2120,-0.01634
14.2160,-0.01664
14.2200,-0.01694
14.2240,-0.01723
14.2280,-0.01753
14.2320,-0.01782
14.2360,-0.01811
14.2400,-0.01841
14.2440,-0.01870
14.2480,-0.01899
14.2520,-0.01928
14.2560,-0.01957
14.2600,-0.01986
14.2640,-0.02015
14.2680,-0.02043
14.2720,-0.02072
14.2760,-0.02100
14.2800,-0.02129
14.2840,-0.02157
14.2880,-0.02186
14.2920,-0.02214
14.2960,-0.02242
14.3000,-0.02270
14.3040,-0.02298
14.3080,-0.02326
14.3120,-0.02354
14.3160,-0.02381
14.3200,-0.02409
14.3240,-0.02436
14.3280,-0.02464
14.3320,-0.02491
14.3360,-0.02518
14.3400,-0.02545
14.3440,-0.02572
14.3480,-0.02599
14.3520,-0.02626
14.3560,-0.02653
14.3600,-0.02679
14.3640,-0.02706
14.3680,-0.02732
14.3720,-0.02758
14.3760,-0.02784
14.3800,-0.02810
14.3840,-0.02836
14.3880,-0.02862
14.3920,-0.02888
14.3960,-0.02913
14.4000,-0.02939
14.4040,-0.02964
14.4080,-0.02990
14.4120,-0.03015
14.4160,-0.03040
14.4200,-0.03065
14.4240,-0.03089
14.4280,-0.03114
14.4320,-0.03138
14.4360,-0.03163
14.4400,-0.03187
14.4440,-0.03211
14.4480,-0.03235
14.4520,-0.03259
14.4560,-0.03283
14.4600,-0.03306
14.4640,-0.03326
14.4680,-0.03320
14.4720,-0.03158
14.4760,-0.02289
14.4800,0.00971
14.4840,0.10088
14.4880,0.28997
14.4920,0.57162
14.4960,0.84736
14.5000,0.96464
14.5040,0.84692
14.5080,0.57073
14.5120,0.28864
14.5160,0.09910
14.5200,0.00749
14.5240,-0.02555
14.5280,-0.03469
14.5320,-0.03675
14.5360,-0.03726
14.5400,-0.03750
14.5440,-0.03771
14.5480,-0.03792
14.5520,-0.03812
14.5560,-0.03832
14.5600,-0.03853
14.5640,-0.03873
14.5680,-0.03892
14.5720,-0.03912
14.5760,-0.03931
14.5800,-0.03951
14.5840,-0.03970
14.5880,-0.03989
14.5920,-0.04008
14.5960,-0.04027
14.6000,-0.04045
14.6040,-0.04063
14.6080,-0.04082
14.6120,-0.04100
14.6160,-0.04118
14.6200,-0.04135
14.6240,-0.04153
14.6280,-0.04170
14.6320,-0.04188
14.6360,-0.04205
14.6400,-0.04222
14.6440,-0.04238
14.6480,-0.04255
14.6520,-0.04271
14.6560,-0.04288
14.6600,-0.04304
14.6640,-0.04320
14.6680,-0.04335
14.6720,-0.04351
14.6760,-0.04366
14.6800,-0.04382
14.6840,-0.04397
14.6880,-0.04411
14.6920,-0.04426
14.6960,-0.04441
14.7000,-0.04455
14.7040,-0.04469
14.7080,-0.04483
14.7120,-0.04497
14.7160,-0.04511
14.7200,-0.04524
14.7240,-0.04537
14.7280,-0.04551
14.7320,-0.04563
14.7360,-0.04576
14.7400,-0.04589
14.7440,-0.04601
14.7480,-0.04613
14.7520,-0.04625
14.7560,-0.04637
14.7600,-0.04649
14.7640,-0.04660
14.7680,-0.04672
14.7720,-0.04683
14.7760,-0.04694
14.7800,-0.04704
14.7840,-0.04715
14.7880,-0.04725
14.7920,-0.04735
14.7960,-0.04745
14.8000,-0.04755
14.8040,-0.04765
14.8080,-0.04774
14.8120,-0.04784
14.8160,-0.04793
14.8200,-0.04801
14.8240,-0.04810
14.8280,-0.04819
14.8320,-0.04827
14.8360,-0.04835
14.8400,-0.04843
14.8440,-0.04851
14.8480,-0.04858
14.8520,-0.04865
14.8560,-0.04873
14.8600,-0.04880
14.8640,-0.04886
14.8680,-0.04893
14.8720,-0.04899
14.8760,-0.04905
14.8800,-0.04911
14.8840,-0.04917
14.8880,-0.04923
14.8920,-0.04928
14.8960,-0.04933
14.9000,-0.04938
14.9040,-0.04943
14.9080,-0.04948
14.9120,-0.04952
14.9160,-0.04957
14.9200,-0.04961
14.9240,-0.04964
14.9280,-0.04968
14.9320,-0.04972
14.9360,-0.04975
14.9400,-0.04978
14.9440,-0.04981
14.9480,-0.04983
14.9520,-0.04986
14.9560,-0.04988
14.9600,-0.04990
14.9640,-0.04992
14.9680,-0.04994
14.9720,-0.04995
14.9760,-0.04996
14.9800,-0.04998
14.9840,-0.04998
14.9880,-0.04999
14.9920,-0.05000
14.9960,-0.05000
15.0000,-0.05000
15.0040,-0.05000
15.0080,-0.05000
15.0120,-0.04999
15.0160,-0.04998
15.0200,-0.04998
15.0240,-0.04996
15.0280,-0.04995
15.0320,-0.04994
15.0360,-0.04992
15.0400,-0.04990
15.0440,-0.04988
15.0480,-0.04986
15.0520,-0.04983
15.0560,-0.04981
15.0600,-0.04978
15.0640,-0.04975
15.0680,-0.04972
15.0720,-0.04968
15.0760,-0.04964
15.0800,-0.04961
15.0840,-0.04957
15.0880,-0.04952
15.0920,-0.04948
15.0960,-0.04943
15.1000,-0.04938
15.1040,-0.04933
15.1080,-0.04928
15.1120,-0.04923
15.1160,-0.04917
15.1200,-0.04911
15.1240,-0.04905
15.1280,-0.04899
15.1320,-0.04893
15.1360,-0.04886
15.1400,-0.04880
15.1440,-0.04873
15.1480,-0.04865
15.1520,-0.04858
15.1560,-0.04851
15.1600,-0.04843
15.1640,-0.04835
15.1680,-0.04827
15.1720,-0.04819
15.1760,-0.04810
15.1800,-0.04801
15.1840,-0.04793
15.1880,-0.04784
15.1920,-0.04774
15.1960,-0.04765
15.2000,-0.04755
15.2040,-0.04745
15.2080,-0.04735
15.2120,-0.04725
15.2160,-0.04715
15.2200,-0.04704
15.2240,-0.04694
15.2280,-0.04683
15.2320,-0.04672
15.2360,-0.04660
15.2400,-0.04649
15.2440,-0.04637
15.2480,-0.04625
15.2520,-0.04613
15.2560,-0.04601
15.2600,-0.04589
15.2640,-0.04576
15.2680,-0.04563
15.2720,-0.04551
15.2760,-0.04537
15.2800,-0.04524
15.2840,-0.04511
15.2880,-0.04497
15.2920,-0.04483
15.2960,-0.04469
15.3000,-0.04455
15.3040,-0.04441
15.3080,-0.04426
15.3120,-0.04411
15.3160,-0.04397
15.3200,-0.04382
15.3240,-0.04366
15.3280,-0.04351
15.3320,-0.04335
15.3360,-0.04320
15.3400,-0.04304
15.3440,-0.04288
15.3480,-0.04271
15.3520,-0.04255
15.3560,-0.04238
15.3600,-0.04222
15.3640,-0.04205
15.3680,-0.04188
15.3720,-0.04170
15.3760,-0.04153
15.3800,-0.04135
15.3840,-0.04118
15.3880,-0.04100
15.3920,-0.04082
15.3960,-0.04063
15.4000,-0.04045
15.4040,-0.04027
15.4080,-0.04008
15.4120,-0.03989
15.4160,-0.03970
15.4200,-0.03951
15.4240,-0.03931
15.4280,-0.03912
15.4320,-0.03892
15.4360,-0.03873
15.4400,-0.03853
15.4440,-0.03832
15.4480,-0.03812
15.4520,-0.03792
15.4560,-0.03771
15.4600,-0.03750
15.4640,-0.03726
15.4680,-0.03675
15.4720,-0.03469
15.4760,-0.02555
15.4800,0.00749
15.4840,0.09910
15.4880,0.28864
15.4920,0.57073
15.4960,0.84692
15.5000,0.96464
15.5040,0.84736
15.5080,0.57162
15.5120,0.28997
15.5160,0.10088
15.5200,0.00971
15.5240,-0.02289
15.5280,-0.03158
15.5320,-0.03320
15.5360,-0.03326
15.5400,-0.03306
15.5440,-0.03283
15.5480,-0.03259
15.5520,-0.03235
15.5560,-0.03211
15.5600,-0.03187
15.5640,-0.03163
15.5680,-0.03138
15.5720,-0.03114
15.5760,-0.03089
15.5800,-0.03065
15.5840,-0.03040
15.5880,-0.03015
15.5920,-0.02990
15.5960,-0.02964
15.6000,-0.02939
15.6040,-0.02913
15.6080,-0.02888
15.6120,-0.02862
15.6160,-0.02836
15.6200,-0.02810
15.6240,-0.02784
15.6280,-0.02758
15.6320,-0.02732
15.6360,-0.02706
15.6400,-0.02679
15.6440,-0.02653
15.6480,-0.02626
15.6520,-0.02599
15.6560,-0.02572
15.6600,-0.02545
15.6640,-0.02518
15.6680,-0.02491
15.6720,-0.02464
15.6760,-0.02436
15.6800,-0.02409
15.6840,-0.02381
15.6880,-0.02354
15.6920,-0.02326
15.6960,-0.02298
15.7000,-0.02270
15.7040,-0.02242
15.7080,-0.02214
15.7120,-0.02186
15.7160,-0.02157
15.7200,-0.02129
15.7240,-0.02100
15.7280,-0.02072
15.7320,-0.02043
15.7360,-0.02015
15.7400,-0.01986
15.7440,-0.01957
15.7480,-0.01928
15.7520,-0.01899
15.7560,-0.01870
15.7600,-0.01841
15.7640,-0.01811
15.7680,-0.01782
15.7720,-0.01753
15.7760,-0.01723
15.7800,-0.01694
15.7840,-0.01664
15.7880,-0.01634
15.7920,-0.01605
15.7960,-0.01575
15.8000,-0.01545
15.8040,-0.01515
15.8080,-0.01485
15.8120,-0.01455
15.8160,-0.01425
15.8200,-0.01395
15.8240,-0.01365
15.8280,-0.01335
15.8320,-0.01304
15.8360,-0.01274
15.8400,-0.01243
15.8440,-0.01213
15.8480,-0.01182
15.8520,-0.01152
15.8560,-0.01121
15.8600,-0.01091
15.8640,-0.01060
15.8680,-0.01029
15.8720,-0.00999
15.8760,-0.00968
15.8800,-0.00937
15.8840,-0.00906
15.8880,-0.00875
15.8920,-0.00844
15.8960,-0.00813
15.9000,-0.00782
15.9040,-0.00751
15.9080,-0.00720
15.9120,-0.00689
15.9160,-0.00658
15.9200,-0.00627
15.9240,-0.00595
15.9280,-0.00564
15.9320,-0.00533
15.9360,-0.00502
15.9400,-0.00471
15.9440,-0.00439
15.9480,-0.00408
15.9520,-0.00377
15.9560,-0.00345
15.9600,-0.00314
15.9640,-0.00283
15.9680,-0.00251
15.9720,-0.00220
15.9760,-0.00188
15.9800,-0.00157
15.9840,-0.00126
15.9880,-0.00094
15.9920,-0.00063
15.9960,-0.00031
16.0000,-0.00000
16.0040,0.00031
16.0080,0.00063
16.0120,0.00094
16.0160,0.00126
16.0200,0.00157
16.0240,0.00188
16.0280,0.00220
16.0320,0.00251
16.0360,0.00283
16.0400,0.00314
16.0440,0.00345
16.0480,0.00377
16.0520,0.00408
16.0560,0.00439
16.0600,0.00471
16.0640,0.00502
16.0680,0.00533
16.0720,0.00564
16.0760,0.00595
16.0800,0.00627
16.0840,0.00658
16.0880,0.00689
16.0920,0.00720
16.0960,0.00751
16.1000,0.00782
16.1040,0.00813
16.1080,0.00844
16.1120,0.00875
16.1160,0.00906
16.1200,0.00937
16.1240,0.00968
16.1280,0.00999
16.1320,0.01029
16.1360,0.01060
16.1400,0.01091
16.1440,0.01121
16.1480,0.01152
16.1520,0.01182
16.1560,0.01213
16.1600,0.01243
16.1640,0.01274
16.1680,0.01304
16.1720,0.01335
16.1760,0.01365
16.1800,0.01395
16.1840,0.01425
16.1880,0.01455
16.1920,0.01485
16.1960,0.01515
16.2000,0.01545
16.2040,0.01575
16.2080,0.01605
16.2120,0.01634
16.2160,0.01664
16.2200,0.01694
16.2240,0.01723
16.2280,0.01753
16.2320,0.01782
16.2360,0.01811
16.2400,0.01841
16.2440,0.01870
16.2480,0.01899
16.2520,0.01928
16.2560,0.01957
16.2600,0.01986
16.2640,0.02015
16.2680,0.02043
16.2720,0.02072
16.2760,0.02100
16.2800,0.02129
16.2840,0.02157
16.2880,0.02186
16.2920,0.02214
16.2960,0.02242
16.3000,0.02270
16.3040,0.02298
16.3080,0.02326
16.3120,0.02354
16.3160,0.02381
16.3200,0.02409
16.3240,0.02436
16.3280,0.02464
16.3320,0.02491
16.3360,0.02518
16.3400,0.02545
16.3440,0.02572
16.3480,0.02599
16.3520,0.02626
16.3560,0.02653
16.3600,0.02679
16.3640,0.02706
16.3680,0.02732
16.3720,0.02758
16.3760,0.02784
16.3800,0.02810
16.3840,0.02836
16.3880,0.02862
16.3920,0.02888
16.3960,0.02913
16.4000,0.02939
16.4040,0.02964
16.4080,0.02990
16.4120,0.03015
16.4160,0.03040
16.4200,0.03065
16.4240,0.03089
16.4280,0.03114
16.4320,0.03138
16.4360,0.03163
16.4400,0.03187
16.4440,0.03211
16.4480,0.03235
16.4520,0.03259
16.4560,0.03283
16.4600,0.03307
16.4640,0.03334
16.4680,0.03387
16.4720,0.03595
16.4760,0.04511
16.4800,0.07816
16.4840,0.16979
16.4880,0.35934
16.4920,0.64144
16.4960,0.91763
16.5000,1.03536
16.5040,0.91807
16.5080,0.64233
16.5120,0.36067
16.5160,0.17157
16.5200,0.08039
16.5240,0.04777
16.5280,0.03906
16.5320,0.03742
16.5360,0.03734
16.5400,0.03751
16.5440,0.03771
16.5480,0.03792
16.5520,0.03812
16.5560,0.03832
16.5600,0.03853
16.5640,0.03873
16.5680,0.03892
16.5720,0.03912
16.5760,0.03931
16.5800,0.03951
16.5840,0.03970
16.5880,0.03989
16.5920,0.04008
16.5960,0.04027
16.6000,0.04045
16.6040,0.04063
16.6080,0.04082
16.6120,0.04100
16.6160,0.04118
16.6200,0.04135
16.6240,0.04153
16.6280,0.04170
16.6320,0.04188
16.6360,0.04205
16.6400,0.04222
16.6440,0.04238
16.6480,0.04255
16.6520,0.04271
16.6560,0.04288
16.6600,0.04304
16.6640,0.04320
16.6680,0.04335
16.6720,0.04351
16.6760,0.04366
16.6800,0.04382
16.6840,0.04397
16.6880,0.04411
16.6920,0.04426
16.6960,0.04441
16.7000,0.04455
16.7040,0.04469
16.7080,0.04483
16.7120,0.04497
16.7160,0.04511
16.7200,0.04524
16.7240,0.04537
16.7280,0.04551
16.7320,0.04563
16.7360,0.04576
16.7400,0.04589
16.7440,0.04601
16.7480,0.04613
16.7520,0.04625
16.7560,0.04637
16.7600,0.04649
16.7640,0.04660
16.7680,0.04672
16.7720,0.04683
16.7760,0.04694
16.7800,0.04704
16.7840,0.04715
16.7880,0.04725
16.7920,0.04735
16.7960,0.04745
16.8000,0.04755
16.8040,0.04765
16.8080,0.04774
16.8120,0.04784
16.8160,0.04793
16.8200,0.04801
16.8240,0.04810
16.8280,0.04819
16.8320,0.04827
16.8360,0.04835
16.8400,0.04843
16.8440,0.04851
16.8480,0.04858
16.8520,0.04865
16.8560,0.04873
16.8600,0.04880
16.8640,0.04886
16.8680,0.04893
16.8720,0.04899
16.8760,0.04905
16.8800,0.04911
16.8840,0.04917
16.8880,0.04923
16.8920,0.04928
16.8960,0.04933
16.9000,0.04938
16.9040,0.04943
16.9080,0.04948
16.9120,0.04952
16.9160,0.04957
16.9200,0.04961
16.9240,0.04964
16.9280,0.04968
16.9320,0.04972
16.9360,0.04975
16.9400,0.04978
16.9440,0.04981
16.9480,0.04983
16.9520,0.04986
16.9560,0.04988
16.9600,0.04990
16.9640,0.04992
16.9680,0.04994
16.9720,0.04995
16.9760,0.04996
16.9800,0.04998
16.9840,0.04998
16.9880,0.04999
16.9920,0.05000
16.9960,0.05000
17.0000,0.05000
17.0040,0.05000
17.0080,0.05000
17.0120,0.04999
17.0160,0.04998
17.0200,0.04998
17.0240,0.04996
17.0280,0.04995
17.0320,0.04994
17.0360,0.04992
17.0400,0.04990
17.0440,0.04988
17.0480,0.04986
17.0520,0.04983
17.0560,0.04981
17.0600,0.04978
17.0640,0.04975
17.0680,0.04972
17.0720,0.04968
17.0760,0.04964
17.0800,0.04961
17.0840,0.04957
17.0880,0.04952
17.0920,0.04948
17.0960,0.04943
17.1000,0.04938
17.1040,0.04933
17.1080,0.04928
17.1120,0.04923
17.1160,0.04917
17.1200,0.04911
17.1240,0.04905
17.1280,0.04899
17.1320,0.04893
17.1360,0.04886
17.1400,0.04880
17.1440,0.04873
17.1480,0.04865
17.1520,0.04858
17.1560,0.04851
17.1600,0.04843
17.1640,0.04835
17.1680,0.04827
17.1720,0.04819
17.1760,0.04810
17.1800,0.04801
17.1840,0.04793
17.1880,0.04784
17.1920,0.04774
17.1960,0.04765
17.2000,0.04755
17.2040,0.04745
17.2080,0.04735
17.2120,0.04725
17.2160,0.04715
17.2200,0.04704
17.2240,0.04694
17.2280,0.04683
17.2320,0.04672
17.2360,0.04660
17.2400,0.04649
17.2440,0.04637
17.2480,0.04625
17.2520,0.04613
17.2560,0.04601
17.2600,0.04589
17.2640,0.04576
17.2680,0.04563
17.2720,0.04551
17.2760,0.04537
17.2800,0.04524
17.2840,0.04511
17.2880,0.04497
17.2920,0.04483
17.2960,0.04469
17.3000,0.04455
17.3040,0.04441
17.3080,0.04426
17.3120,0.04411
17.3160,0.04397
17.3200,0.04382
17.3240,0.04366
17.3280,0.04351
17.3320,0.04335
17.3360,0.04320
17.3400,0.04304
17.3440,0.04288
17.3480,0.04271
17.3520,0.04255
17.3560,0.04238
17.3600,0.04222
17.3640,0.04205
17.3680,0.04188
17.3720,0.04170
17.3760,0.04153
17.3800,0.04135
17.3840,0.04118
17.3880,0.04100
17.3920,0.04082
17.3960,0.04063
17.4000,0.04045
17.4040,0.04027
17.4080,0.04008
17.4120,0.03989
17.4160,0.03970
17.4200,0.03951
17.4240,0.03931
17.4280,0.03912
17.4320,0.03892
17.4360,0.03873
17.4400,0.03853
17.4440,0.03832
17.4480,0.03812
17.4520,0.03792
17.4560,0.03771
17.4600,0.03751
17.4640,0.03734
17.4680,0.03742
17.4720,0.03906
17.4760,0.04777
17.4800,0.08039
17.4840,0.17157
17.4880,0.36067
17.4920,0.64233
17.4960,0.91807
17.5000,1.03536
17.5040,0.91763
17.5080,0.64144
17.5120,0.35934
17.5160,0.16979
17.5200,0.07816
17.5240,0.04511
17.5280,0.03595
17.5320,0.03387
17.5360,0.03334
17.5400,0.03307
17.5440,0.03283
17.5480,0.03259
17.5520,0.03235
17.5560,0.03211
17.5600,0.03187
17.5640,0.03163
17.5680,0.03138
17.5720,0.03114
17.5760,0.03089
17.5800,0.03065
17.5840,0.03040
17.5880,0.03015
17.5920,0.02990
17.5960,0.02964
17.6000,0.02939
17.6040,0.02913
17.6080,0.02888
17.6120,0.02862
17.6160,0.02836
17.6200,0.02810
17.6240,0.02784
17.6280,0.02758
17.6320,0.02732
17.6360,0.02706
17.6400,0.02679
17.6440,0.02653
17.6480,0.02626
17.6520,0.02599
17.6560,0.02572
17.6600,0.02545
17.6640,0.02518
17.6680,0.02491
17.6720,0.02464
17.6760,0.02436
17.6800,0.02409
17.6840,0.02381
17.6880,0.02354
17.6920,0.02326
17.6960,0.02298
17.7000,0.02270
17.7040,0.02242
17.7080,0.02214
17.7120,0.02186
17.7160,0.02157
17.7200,0.02129
17.7240,0.02100
17.7280,0.02072
17.7320,0.02043
17.7360,0.02015
17.7400,0.01986
17.7440,0.01957
17.7480,0.01928
17.7520,0.01899
17.7560,0.01870
17.7600,0.01841
17.7640,0.01811
17.7680,0.01782
17.7720,0.01753
17.7760,0.01723
17.7800,0.01694
17.7840,0.01664
17.7880,0.01634
17.7920,0.01605
17.7960,0.01575
17.8000,0.01545
17.8040,0.01515
17.8080,0.01485
17.8120,0.01455
17.8160,0.01425
17.8200,0.01395
17.8240,0.01365
17.8280,0.01335
17.8320,0.01304
17.8360,0.01274
17.8400,0.01243
17.8440,0.01213
17.8480,0.01182
17.8520,0.01152
17.8560,0.01121
17.8600,0.01091
17.8640,0.01060
17.8680,0.01029
17.8720,0.00999
17.8760,0.00968
17.8800,0.00937
17.8840,0.00906
17.8880,0.00875
17.8920,0.00844
17.8960,0.00813
17.9000,0.00782
17.9040,0.00751
17.9080,0.00720
17.9120,0.00689
17.9160,0.00658
17.9200,0.00627
17.9240,0.00595
17.9280,0.00564
17.9320,0.00533
17.9360,0.00502
17.9400,0.00471
17.9440,0.00439
17.9480,0.00408
17.9520,0.00377
17.9560,0.00345
17.9600,0.00314
17.9640,0.00283
17.9680,0.00251
17.9720,0.00220
17.9760,0.00188
17.9800,0.00157
17.9840,0.00126
17.9880,0.00094
17.9920,0.00063
17.9960,0.00031
18.0000,0.00000
18.0040,-0.00031
18.0080,-0.00063
18.0120,-0.00094
18.0160,-0.00126
18.0200,-0.00157
18.0240,-0.00188
18.0280,-0.00220
18.0320,-0.00251
18.0360,-0.00283
18.0400,-0.00314
18.0440,-0.00345
18.0480,-0.00377
18.0520,-0.00408
18.0560,-0.00439
18.0600,-0.00471
18.0640,-0.00502
18.0680,-0.00533
18.0720,-0.00564
18.0760,-0.00595
18.0800,-0.00627
18.0840,-0.00658
18.0880,-0.00689
18.0920,-0.00720
18.0960,-0.00751
18.1000,-0.00782
18.1040,-0.00813
18.1080,-0.00844
18.1120,-0.00875
18.1160,-0.00906
18.1200,-0.00937
18.1240,-0.00968
18.1280,-0.00999
18.1320,-0.01029
18.1360,-0.01060
18.1400,-0.01091
18.1440,-0.01121
18.1480,-0.01152
18.1520,-0.01182
18.1560,-0.01213
18.1600,-0.01243
18.1640,-0.01274
18.1680,-0.01304
18.1720,-0.01335
18.1760,-0.01365
18.1800,-0.01395
18.1840,-0.01425
18.1880,-0.01455
18.1920,-0.01485
18.1960,-0.01515
18.2000,-0.01545
18.2040,-0.01575
18.2080,-0.01605
18.2120,-0.01634
18.2160,-0.01664
18.2200,-0.01694
18.2240,-0.01723
18.2280,-0.01753
18.2320,-0.01782
18.2360,-0.01811
18.2400,-0.01841
18.2440,-0.01870
18.2480,-0.01899
18.2520,-0.01928
18.2560,-0.01957
18.2600,-0.01986
18.2640,-0.02015
18.2680,-0.02043
18.2720,-0.02072
18.2760,-0.02100
18.2800,-0.02129
18.2840,-0.02157
18.2880,-0.02186
18.2920,-0.02214
18.2960,-0.02242
18.3000,-0.02270
18.3040,-0.02298
18.3080,-0.02326
18.3120,-0.02354
18.3160,-0.02381
18.3200,-0.02409
18.3240,-0.02436
18.3280,-0.02464
18.3320,-0.02491
18.3360,-0.02518
18.3400,-0.02545
18.3440,-0.02572
18.3480,-0.02599
18.3520,-0.02626
18.3560,-0.02653
18.3600,-0.02679
18.3640,-0.02706
18.3680,-0.02732
18.3720,-0.02758
18.3760,-0.02784
18.3800,-0.02810
18.3840,-0.02836
18.3880,-0.02862
18.3920,-0.02888
18.3960,-0.02913
18.4000,-0.02939
18.4040,-0.02964
18.4080,-0.02990
18.4120,-0.03015
18.4160,-0.03040
18.4200,-0.03065
18.4240,-0.03089
18.4280,-0.03114
18.4320,-0.03138
18.4360,-0.03163
18.4400,-0.03187
18.4440,-0.03211
18.4480,-0.03235
18.4520,-0.03259
18.4560,-0.03283
18.4600,-0.03306
18.4640,-0.03326
18.4680,-0.03320
18.4720,-0.03158
18.4760,-0.02289
18.4800,0.00971
18.4840,0.10088
18.4880,0.28997
18.4920,0.57162
18.4960,0.84736
18.5000,0.96464
18.5040,0.84692
18.5080,0.57073
18.5120,0.28864
18.5160,0.09910
18.5200,0.00749
18.5240,-0.02555
18.5280,-0.03469
18.5320,-0.03675
18.5360,-0.03726
18.5400,-0.03750
18.5440,-0.03771
18.5480,-0.03792
18.5520,-0.03812
18.5560,-0.03832
18.5600,-0.03853
18.5640,-0.03873
18.5680,-0.03892
18.5720,-0.03912
18.5760,-0.03931
18.5800,-0.03951
18.5840,-0.03970
18.5880,-0.03989
18.5920,-0.04008
18.5960,-0.04027
18.6000,-0.04045
18.6040,-0.04063
18.6080,-0.04082
18.6120,-0.04100
18.6160,-0.04118
18.6200,-0.04135
18.6240,-0.04153
18.6280,-0.04170
18.6320,-0.04188
18.6360,-0.04205
18.6400,-0.04222
18.6440,-0.04238
18.6480,-0.04255
18.6520,-0.04271
18.6560,-0.04288
18.6600,-0.04304
18.6640,-0.04320
18.6680,-0.04335
18.6720,-0.04351
18.6760,-0.04366
18.6800,-0.04382
18.6840,-0.04397
18.6880,-0.04411
18.6920,-0.04426
18.6960,-0.04441
18.7000,-0.04455
18.7040,-0.04469
18.7080,-0.04483
18.7120,-0.04497
18.7160,-0.04511
18.7200,-0.04524
18.7240,-0.04537
18.7280,-0.04551
18.7320,-0.04563
18.7360,-0.04576
18.7400,-0.04589
18.7440,-0.04601
18.7480,-0.04613
18.7520,-0.04625
18.7560,-0.04637
18.7600,-0.04649
18.7640,-0.04660
18.7680,-0.04672
18.7720,-0.04683
18.7760,-0.04694
18.7800,-0.04704
18.7840,-0.04715
18.7880,-0.04725
18.7920,-0.04735
18.7960,-0.04745
18.8000,-0.04755
18.8040,-0.04765
18.8080,-0.04774
18.8120,-0.04784
18.8160,-0.04793
18.8200,-0.04801
18.8240,-0.04810
18.8280,-0.04819
18.8320,-0.04827
18.8360,-0.04835
18.8400,-0.04843
18.8440,-0.04851
18.8480,-0.04858
18.8520,-0.04865
18.8560,-0.04873
18.8600,-0.04880
18.8640,-0.04886
18.8680,-0.04893
18.8720,-0.04899
18.8760,-0.04905
18.8800,-0.04911
18.8840,-0.04917
18.8880,-0.04923
18.8920,-0.04928
18.8960,-0.04933
18.9000,-0.04938
18.9040,-0.04943
18.9080,-0.04948
18.9120,-0.04952
18.9160,-0.04957
18.9200,-0.04961
18.9240,-0.04964
18.9280,-0.04968
18.9320,-0.04972
18.9360,-0.04975
18.9400,-0.04978
18.9440,-0.04981
18.9480,-0.04983
18.9520,-0.04986
18.9560,-0.04988
18.9600,-0.04990
18.9640,-0.04992
18.9680,-0.04994
18.9720,-0.04995
18.9760,-0.04996
18.9800,-0.04998
18.9840,-0.04998
18.9880,-0.04999
18.9920,-0.05000
18.9960,-0.05000
19.0000,-0.05000
19.0040,-0.05000
19.0080,-0.05000
19.0120,-0.04999
19.0160,-0.04998
19.0200,-0.04998
19.0240,-0.04996
19.0280,-0.04995
19.0320,-0.04994
19.0360,-0.04992
19.0400,-0.04990
19.0440,-0.04988
19.0480,-0.04986
19.0520,-0.04983
19.0560,-0.04981
19.0600,-0.04978
19.0640,-0.04975
19.0680,-0.04972
19.0720,-0.04968
19.0760,-0.04964
19.0800,-0.04961
19.0840,-0.04957
19.0880,-0.04952
19.0920,-0.04948
19.0960,-0.04943
19.1000,-0.04938
19.1040,-0.04933
19.1080,-0.04928
19.1120,-0.04923
19.1160,-0.04917
19.1200,-0.04911
19.1240,-0.04905
19.1280,-0.04899
19.1320,-0.04893
19.1360,-0.04886
19.1400,-0.04880
19.1440,-0.04873
19.1480,-0.04865
19.1520,-0.04858
19.1560,-0.04851
19.1600,-0.04843
19.1640,-0.04835
19.1680,-0.04827
19.1720,-0.04819
19.1760,-0.04810
19.1800,-0.04801
19.1840,-0.04793
19.1880,-0.04784
19.1920,-0.04774
19.1960,-0.04765
19.2000,-0.04755
19.2040,-0.04745
19.2080,-0.04735
19.2120,-0.04725
19.2160,-0.04715
19.2200,-0.04704
19.2240,-0.04694
19.2280,-0.04683
19.2320,-0.04672
19.2360,-0.04660
19.2400,-0.04649
19.2440,-0.04637
19.2480,-0.04625
19.2520,-0.04613
19.2560,-0.04601
19.2600,-0.04589
19.2640,-0.04576
19.2680,-0.04563
19.2720,-0.04551
19.2760,-0.04537
19.2800,-0.04524
19.2840,-0.04511
19.2880,-0.04497
19.2920,-0.04483
19.2960,-0.04469
19.3000,-0.04455
19.3040,-0.04441
19.3080,-0.04426
19.3120,-0.04411
19.3160,-0.04397
19.3200,-0.04382
19.3240,-0.04366
19.3280,-0.04351
19.3320,-0.04335
19.3360,-0.04320
19.3400,-0.04304
19.3440,-0.04288
19.3480,-0.04271
19.3520,-0.04255
19.3560,-0.04238
19.3600,-0.04222
19.3640,-0.04205
19.3680,-0.04188
19.3720,-0.04170
19.3760,-0.04153
19.3800,-0.04135
19.3840,-0.04118
19.3880,-0.04100
19.3920,-0.04082
19.3960,-0.04063
19.4000,-0.04045
19.4040,-0.04027
19.4080,-0.04008
19.4120,-0.03989
19.4160,-0.03970
19.4200,-0.03951
19.4240,-0.03931
19.4280,-0.03912
19.4320,-0.03892
19.4360,-0.03873
19.4400,-0.03853
19.4440,-0.03832
19.4480,-0.03812
19.4520,-0.03792
19.4560,-0.03771
19.4600,-0.03750
19.4640,-0.03726
19.4680,-0.03675
19.4720,-0.03469
19.4760,-0.02555
19.4800,0.00749
19.4840,0.09910
19.4880,0.28864
19.4920,0.57073
19.4960,0.84692
19.5000,0.96464
19.5040,0.84736
19.5080,0.57162
19.5120,0.28997
19.5160,0.10088
19.5200,0.00971
19.5240,-0.02289
19.5280,-0.03158
19.5320,-0.03320
19.5360,-0.03326
19.5400,-0.03306
19.5440,-0.03283
19.5480,-0.03259
19.5520,-0.03235
19.5560,-0.03211
19.5600,-0.03187
19.5640,-0.03163
19.5680,-0.03138
19.5720,-0.03114
19.5760,-0.03089
19.5800,-0.03065
19.5840,-0.03040
19.5880,-0.03015
19.5920,-0.02990
19.5960,-0.02964
19.6000,-0.02939
19.6040,-0.02913
19.6080,-0.02888
19.6120,-0.02862
19.6160,-0.02836
19.6200,-0.02810
19.6240,-0.02784
19.6280,-0.02758
19.6320,-0.02732
19.6360,-0.02706
19.6400,-0.02679
19.6440,-0.02653
19.6480,-0.02626
19.6520,-0.02599
19.6560,-0.02572
19.6600,-0.02545
19.6640,-0.02518
19.6680,-0.02491
19.6720,-0.02464
19.6760,-0.02436
19.6800,-0.02409
19.6840,-0.02381
19.6880,-0.02354
19.6920,-0.02326
19.6960,-0.02298
19.7000,-0.02270
19.7040,-0.02242
19.7080,-0.02214
19.7120,-0.02186
19.7160,-0.02157
19.7200,-0.02129
19.7240,-0.02100
19.7280,-0.02072
19.7320,-0.02043
19.7360,-0.02015
19.7400,-0.01986
19.7440,-0.01957
19.7480,-0.01928
19.7520,-0.01899
19.7560,-0.01870
19.7600,-0.01841
19.7640,-0.01811
19.7680,-0.01782
19.7720,-0.01753
19.7760,-0.01723
19.7800,-0.01694
19.7840,-0.01664
19.7880,-0.01634
19.7920,-0.01605
19.7960,-0.01575
19.8000,-0.01545
19.8040,-0.01515
19.8080,-0.01485
19.8120,-0.01455
19.8160,-0.01425
19.8200,-0.01395
19.8240,-0.01365
19.8280,-0.01335
19.8320,-0.01304
19.8360,-0.01274
19.8400,-0.01243
19.8440,-0.01213
19.8480,-0.01182
19.8520,-0.01152
19.8560,-0.01121
19.8600,-0.01091
19.8640,-0.01060
19.8680,-0.01029
19.8720,-0.00999
19.8760,-0.00968
19.8800,-0.00937
19.8840,-0.00906
19.8880,-0.00875
19.8920,-0.00844
19.8960,-0.00813
19.9000,-0.00782
19.9040,-0.00751
19.9080,-0.00720
19.9120,-0.00689
19.9160,-0.00658
19.9200,-0.00627
19.9240,-0.00595
19.9280,-0.00564
19.9320,-0.00533
19.9360,-0.00502
19.9400,-0.00471
19.9440,-0.00439
19.9480,-0.00408
19.9520,-0.00377
19.9560,-0.00345
19.9600,-0.00314
19.9640,-0.00283
19.9680,-0.00251
19.9720,-0.00220
19.9760,-0.00188
19.9800,-0.00157
19.9840,-0.00126
19.9880,-0.00094
19.9920,-0.00063
19.9960,-0.00031
20.0000,-0.00000
20.0040,0.00031
20.0080,0.00063
20.0120,0.00094
20.0160,0.00126
20.0200,0.00157
20.0240,0.00188
20.0280,0.00220
20.0320,0.00251
20.0360,0.00283
20.0400,0.00314
20.0440,0.00345
20.0480,0.00377
20.0520,0.00408
20.0560,0.00439
20.0600,0.00471
20.0640,0.00502
20.0680,0.00533
20.0720,0.00564
20.0760,0.00595
20.0800,0.00627
20.0840,0.00658
20.0880,0.00689
20.0920,0.00720
20.0960,0.00751
20.1000,0.00782
20.1040,0.00813
20.1080,0.00844
20.1120,0.00875
20.1160,0.00906
20.1200,0.00937
20.1240,0.00968
20.1280,0.00999
20.1320,0.01029
20.1360,0.01060
20.1400,0.01091
20.1440,0.01121
20.1480,0.01152
20.1520,0.01182
20.1560,0.01213
20.1600,0.01243
20.1640,0.01274
20.1680,0.01304
20.1720,0.01335
20.1760,0.01365
20.1800,0.01395
20.1840,0.01425
20.1880,0.01455
20.1920,0.01485
20.1960,0.01515
20.2000,0.01545
20.2040,0.01575
20.2080,0.01605
20.2120,0.01634
20.2160,0.01664
20.2200,0.01694
20.2240,0.01723
20.2280,0.01753
20.2320,0.01782
20.2360,0.01811
20.2400,0.01841
20.2440,0.01870
20.2480,0.01899
20.2520,0.01928
20.2560,0.01957
20.2600,0.01986
20.2640,0.02015
20.2680,0.02043
20.2720,0.02072
20.2760,0.02100
20.2800,0.02129
20.2840,0.02157
20.2880,0.02186
20.2920,0.02214
20.2960,0.02242
20.3000,0.02270
20.3040,0.02298
20.3080,0.02326
20.3120,0.02354
20.3160,0.02381
20.3200,0.02409
20.3240,0.02436
20.3280,0.02464
20.3320,0.02491
20.3360,0.02518
20.3400,0.02545
20.3440,0.02572
20.3480,0.02599
20.3520,0.02626
20.3560,0.02653
20.3600,0.02679
20.3640,0.02706
20.3680,0.02732
20.3720,0.02758
20.3760,0.02784
20.3800,0.02810
20.3840,0.02836
20.3880,0.02862
20.3920,0.02888
20.3960,0.02913
20.4000,0.02939
20.4040,0.02964
20.4080,0.02990
20.4120,0.03015
20.4160,0.03040
20.4200,0.03065
20.4240,0.03089
20.4280,0.03114
20.4320,0.03138
20.4360,0.03163
20.4400,0.03187
20.4440,0.03211
20.4480,0.03235
20.4520,0.03259
20.4560,0.03283
20.4600,0.03307
20.4640,0.03334
20.4680,0.03387
20.4720,0.03595
20.4760,0.04511
20.4800,0.07816
20.4840,0.16979
20.4880,0.35934
20.4920,0.64144
20.4960,0.91763
20.5000,1.03536
20.5040,0.91807
20.5080,0.64233
20.5120,0.36067
20.5160,0.17157
20.5200,0.08039
20.5240,0.04777
20.5280,0.03906
20.5320,0.03742
20.5360,0.03734
20.5400,0.03751
20.5440,0.03771
20.5480,0.03792
20.5520,0.03812
20.5560,0.03832
20.5600,0.03853
20.5640,0.03873
20.5680,0.03892
20.5720,0.03912
20.5760,0.03931
20.5800,0.03951
20.5840,0.03970
20.5880,0.03989
20.5920,0.04008
20.5960,0.04027
20.6000,0.04045
20.6040,0.04063
20.6080,0.04082
20.6120,0.04100
20.6160,0.04118
20.6200,0.04135
20.6240,0.04153
20.6280,0.04170
20.6320,0.04188
20.6360,0.04205
20.6400,0.04222
20.6440,0.04238
20.6480,0.04255
20.6520,0.04271
20.6560,0.04288
20.6600,0.04304
20.6640,0.04320
20.6680,0.04335
20.6720,0.04351
20.6760,0.04366
20.6800,0.04382
20.6840,0.04397
20.6880,0.04411
20.6920,0.04426
20.6960,0.04441
20.7000,0.04455
20.7040,0.04469
20.7080,0.04483
20.7120,0.04497
20.7160,0.04511
20.7200,0.04524
20.7240,0.04537
20.7280,0.04551
20.7320,0.04563
20.7360,0.04576
20.7400,0.04589
20.7440,0.04601
20.7480,0.04613
20.7520,0.04625
20.7560,0.04637
20.7600,0.04649
20.7640,0.04660
20.7680,0.04672
20.7720,0.04683
20.7760,0.04694
20.7800,0.04704
20.7840,0.04715
20.7880,0.04725
20.7920,0.04735
20.7960,0.04745
20.8000,0.04755
20.8040,0.04765
20.8080,0.04774
20.8120,0.04784
20.8160,0.04793
20.8200,0.04801
20.8240,0.04810
20.8280,0.04819
20.8320,0.04827
20.8360,0.04835
20.8400,0.04843
20.8440,0.04851
20.8480,0.04858
20.8520,0.04865
20.8560,0.04873
20.8600,0.04880
20.8640,0.04886
20.8680,0.04893
20.8720,0.04899
20.8760,0.04905
20.8800,0.04911
20.8840,0.04917
20.8880,0.04923
20.8920,0.04928
20.8960,0.04933
20.9000,0.04938
20.9040,0.04943
20.9080,0.04948
20.9120,0.04952
20.9160,0.04957
20.9200,0.04961
20.9240,0.04964
20.9280,0.04968
20.9320,0.04972
20.9360,0.04975
20.9400,0.04978
20.9440,0.04981
20.9480,0.04983
20.9520,0.04986
20.9560,0.04988
20.9600,0.04990
20.9640,0.04992
20.9680,0.04994
20.9720,0.04995
20.9760,0.04996
20.9800,0.04998
20.9840,0.04998
20.9880,0.04999
20.9920,0.05000
20.9960,0.05000
21.0000,0.05000
21.0040,0.05000
21.0080,0.05000
21.0120,0.04999
21.0160,0.04998
21.0200,0.04998
21.0240,0.04996
21.0280,0.04995
21.0320,0.04994
21.0360,0.04992
21.0400,0.04990
21.0440,0.04988
21.0480,0.04986
21.0520,0.04983
21.0560,0.04981
21.0600,0.04978
21.0640,0.04975
21.0680,0.04972
21.0720,0.04968
21.0760,0.04964
21.0800,0.04961
21.0840,0.04957
21.0880,0.04952
21.0920,0.04948
21.0960,0.04943
21.1000,0.04938
21.1040,0.04933
21.1080,0.04928
21.1120,0.04923
21.1160,0.04917
21.1200,0.04911
21.1240,0.04905
21.1280,0.04899
21.1320,0.04893
21.1360,0.04886
21.1400,0.04880
21.1440,0.04873
21.1480,0.04865
21.1520,0.04858
21.1560,0.04851
21.1600,0.04843
21.1640,0.04835
21.1680,0.04827
21.1720,0.04819
21.1760,0.04810
21.1800,0.04801
21.1840,0.04793
21.1880,0.04784
21.1920,0.04774
21.1960,0.04765
21.2000,0.04755
21.2040,0.04745
21.2080,0.04735
21.2120,0.04725
21.2160,0.04715
21.2200,0.04704
21.2240,0.04694
21.2280,0.04683
21.2320,0.04672
21.2360,0.04660
21.2400,0.04649
21.2440,0.04637
21.2480,0.04625
21.2520,0.04613
21.2560,0.04601
21.2600,0.04589
21.2640,0.04576
21.2680,0.04563
21.2720,0.04551
21.2760,0.04537
21.2800,0.04524
21.2840,0.04511
21.2880,0.04497
21.2920,0.04483
21.2960,0.04469
21.3000,0.04455
21.3040,0.04441
21.3080,0.04426
21.3120,0.04411
21.3160,0.04397
21.3200,0.04382
21.3240,0.04366
21.3280,0.04351
21.3320,0.04335
21.3360,0.04320
21.3400,0.04304
21.3440,0.04288
21.3480,0.04271
21.3520,0.04255
21.3560,0.04238
21.3600,0.04222
21.3640,0.04205
21.3680,0.04188
21.3720,0.04170
21.3760,0.04153
21.3800,0.04135
21.3840,0.04118
21.3880,0.04100
21.3920,0.04082
21.3960,0.04063
21.4000,0.04045
21.4040,0.04027
21.4080,0.04008
21.4120,0.03989
21.4160,0.03970
21.4200,0.03951
21.4240,0.03931
21.4280,0.03912
21.4320,0.03892
21.4360,0.03873
21.4400,0.03853
21.4440,0.03832
21.4480,0.03812
21.4520,0.03792
21.4560,0.03771
21.4600,0.03751
21.4640,0.03734
21.4680,0.03742
21.4720,0.03906
21.4760,0.04777
21.4800,0.08039
21.4840,0.17157
21.4880,0.36067
21.4920,0.64233
21.4960,0.91807
21.5000,1.03536
21.5040,0.91763
21.5080,0.64144
21.5120,0.35934
21.5160,0.16979
21.5200,0.07816
21.5240,0.04511
21.5280,0.03595
21.5320,0.03387
21.5360,0.03334
21.5400,0.03307
21.5440,0.03283
21.5480,0.03259
21.5520,0.03235
21.5560,0.03211
21.5600,0.03187
21.5640,0.03163
21.5680,0.03138
21.5720,0.03114
21.5760,0.03089
21.5800,0.03065
21.5840,0.03040
21.5880,0.03015
21.5920,0.02990
21.5960,0.02964
21.6000,0.02939
21.6040,0.02913
21.6080,0.02888
21.6120,0.02862
21.6160,0.02836
21.6200,0.02810
21.6240,0.02784
21.6280,0.02758
21.6320,0.02732
21.6360,0.02706
21.6400,0.02679
21.6440,0.02653
21.6480,0.02626
21.6520,0.02599
21.6560,0.02572
21.6600,0.02545
21.6640,0.02518
21.6680,0.02491
21.6720,0.02464
21.6760,0.02436
21.6800,0.02409
21.6840,0.02381
21.6880,0.02354
21.6920,0.02326
21.6960,0.02298
21.7000,0.02270
21.7040,0.02242
21.7080,0.02214
21.7120,0.02186
21.7160,0.02157
21.7200,0.02129
21.7240,0.02100
21.7280,0.02072
21.7320,0.02043
21.7360,0.02015
21.7400,0.01986
21.7440,0.01957
21.7480,0.01928
21.7520,0.01899
21.7560,0.01870
21.7600,0.01841
21.7640,0.01811
21.7680,0.01782
21.7720,0.01753
21.7760,0.01723
21.7800,0.01694
21.7840,0.01664
21.7880,0.01634
21.7920,0.01605
21.7960,0.01575
21.8000,0.01545
21.8040,0.01515
21.8080,0.01485
21.8120,0.01455
21.8160,0.01425
21.8200,0.01395
21.8240,0.01365
21.8280,0.01335
21.8320,0.01304
21.8360,0.01274
21.8400,0.01243
21.8440,0.01213
21.8480,0.01182
21.8520,0.01152
21.8560,0.01121
21.8600,0.01091
21.8640,0.01060
21.8680,0.01029
21.8720,0.00999
21.8760,0.00968
21.8800,0.00937
21.8840,0.00906
21.8880,0.00875
21.8920,0.00844
21.8960,0.00813
21.9000,0.00782
21.9040,0.00751
21.9080,0.00720
21.9120,0.00689
21.9160,0.00658
21.9200,0.00627
21.9240,0.00595
21.9280,0.00564
21.9320,0.00533
21.9360,0.00502
21.9400,0.00471
21.9440,0.00439
21.9480,0.00408
21.9520,0.00377
21.9560,0.00345
21.9600,0.00314
21.9640,0.00283
21.9680,0.00251
21.9720,0.00220
21.9760,0.00188
21.9800,0.00157
21.9840,0.00126
21.9880,0.00094
21.9920,0.00063
21.9960,0.00031
22.0000,0.00000
22.0040,-0.00031
22.0080,-0.00063
22.0120,-0.00094
22.0160,-0.00126
22.0200,-0.00157
22.0240,-0.00188
22.0280,-0.00220
22.0320,-0.00251
22.0360,-0.00283
22.0400,-0.00314
22.0440,-0.00345
22.0480,-0.00377
22.0520,-0.00408
22.0560,-0.00439
22.0600,-0.00471
22.0640,-0.00502
22.0680,-0.00533
22.0720,-0.00564
22.0760,-0.00595
22.0800,-0.00627
22.0840,-0.00658
22.0880,-0.00689
22.0920,-0.00720
22.0960,-0.00751
22.1000,-0.00782
22.1040,-0.00813
22.1080,-0.00844
22.1120,-0.00875
22.1160,-0.00906
22.1200,-0.00937
22.1240,-0.00968
22.1280,-0.00999
22.1320,-0.01029
22.1360,-0.01060
22.1400,-0.01091
22.1440,-0.01121
22.1480,-0.01152
22.1520,-0.01182
22.1560,-0.01213
22.1600,-0.01243
22.1640,-0.01274
22.1680,-0.01304
22.1720,-0.01335
22.1760,-0.01365
22.1800,-0.01395
22.1840,-0.01425
22.1880,-0.01455
22.1920,-0.01485
22.1960,-0.01515
22.2000,-0.01545
22.2040,-0.01575
22.2080,-0.01605
22.2120,-0.01634
22.2160,-0.01664
22.2200,-0.01694
22.2240,-0.01723
22.2280,-0.01753
22.2320,-0.01782
22.2360,-0.01811
22.2400,-0.01841
22.2440,-0.01870
22.2480,-0.01899
22.2520,-0.01928
22.2560,-0.01957
22.2600,-0.01986
22.2640,-0.02015
22.2680,-0.02043
22.2720,-0.02072
22.2760,-0.02100
22.2800,-0.02129
22.2840,-0.02157
22.2880,-0.02186
22.2920,-0.02214
22.2960,-0.02242
22.3000,-0.02270
22.3040,-0.02298
22.3080,-0.02326
22.3120,-0.02354
22.3160,-0.02381
22.3200,-0.02409
22.3240,-0.02436
22.3280,-0.02464
22.3320,-0.02491
22.3360,-0.02518
22.3400,-0.02545
22.3440,-0.02572
22.3480,-0.02599
22.3520,-0.02626
22.3560,-0.02653
22.3600,-0.02679
22.3640,-0.02706
22.3680,-0.02732
22.3720,-0.02758
22.3760,-0.02784
22.3800,-0.02810
22.3840,-0.02836
22.3880,-0.02862
22.3920,-0.02888
22.3960,-0.02913
22.4000,-0.02939
22.4040,-0.02964
22.4080,-0.02990
22.4120,-0.03015
22.4160,-0.03040
22.4200,-0.03065
22.4240,-0.03089
22.4280,-0.03114
22.4320,-0.03138
22.4360,-0.03163
22.4400,-0.03187
22.4440,-0.03211
22.4480,-0.03235
22.4520,-0.03259
22.4560,-0.03283
22.4600,-0.03306
22.4640,-0.03326
22.4680,-0.03320
22.4720,-0.03158
22.4760,-0.02289
22.4800,0.00971
22.4840,0.10088
22.4880,0.28997
22.4920,0.57162
22.4960,0.84736
22.5000,0.96464
22.5040,0.84692
22.5080,0.57073
22.5120,0.28864
22.5160,0.09910
22.5200,0.00749
22.5240,-0.02555
22.5280,-0.03469
22.5320,-0.03675
22.5360,-0.03726
22.5400,-0.03750
22.5440,-0.03771
22.5480,-0.03792
22.5520,-0.03812
22.5560,-0.03832
22.5600,-0.03853
22.5640,-0.03873
22.5680,-0.03892
22.5720,-0.03912
22.5760,-0.03931
22.5800,-0.03951
22.5840,-0.03970
22.5880,-0.03989
22.5920,-0.04008
22.5960,-0.04027
22.6000,-0.04045
22.6040,-0.04063
22.6080,-0.04082
22.6120,-0.04100
22.6160,-0.04118
22.6200,-0.04135
22.6240,-0.04153
22.6280,-0.04170
22.6320,-0.04188
22.6360,-0.04205
22.6400,-0.04222
22.6440,-0.04238
22.6480,-0.04255
22.6520,-0.04271
22.6560,-0.04288
22.6600,-0.04304
22.6640,-0.04320
22.6680,-0.04335
22.6720,-0.04351
22.6760,-0.04366
22.6800,-0.04382
22.6840,-0.04397
22.6880,-0.04411
22.6920,-0.04426
22.6960,-0.04441
22.7000,-0.04455
22.7040,-0.04469
22.7080,-0.04483
22.7120,-0.04497
22.7160,-0.04511
22.7200,-0.04524
22.7240,-0.04537
22.7280,-0.04551
22.7320,-0.04563
22.7360,-0.04576
22.7400,-0.04589
22.7440,-0.04601
22.7480,-0.04613
22.7520,-0.04625
22.7560,-0.04637
22.7600,-0.04649
22.7640,-0.04660
22.7680,-0.04672
22.7720,-0.04683
22.7760,-0.04694
22.7800,-0.04704
22.7840,-0.04715
22.7880,-0.04725
22.7920,-0.04735
22.7960,-0.04745
22.8000,-0.04755
22.8040,-0.04765
22.8080,-0.04774
22.8120,-0.04784
22.8160,-0.04793
22.8200,-0.04801
22.8240,-0.04810
22.8280,-0.04819
22.8320,-0.04827
22.8360,-0.04835
22.8400,-0.04843
22.8440,-0.04851
22.8480,-0.04858
22.8520,-0.04865
22.8560,-0.04873
22.8600,-0.04880
22.8640,-0.04886
22.8680,-0.04893
22.8720,-0.04899
22.8760,-0.04905
22.8800,-0.04911
22.8840,-0.04917
22.8880,-0.04923
22.8920,-0.04928
22.8960,-0.04933
22.9000,-0.04938
22.9040,-0.04943
22.9080,-0.04948
22.9120,-0.04952
22.9160,-0.04957
22.9200,-0.04961
22.9240,-0.04964
22.9280,-0.04968
22.9320,-0.04972
22.9360,-0.04975
22.9400,-0.04978
22.9440,-0.04981
22.9480,-0.04983
22.9520,-0.04986
22.9560,-0.04988
22.9600,-0.04990
22.9640,-0.04992
22.9680,-0.04994
22.9720,-0.04995
22.9760,-0.04996
22.9800,-0.04998
22.9840,-0.04998
22.9880,-0.04999
22.9920,-0.05000
22.9960,-0.05000
23.0000,-0.05000
23.0040,-0.05000
23.0080,-0.05000
23.0120,-0.04999
23.0160,-0.04998
23.0200,-0.04998
23.0240,-0.04996
23.0280,-0.04995
23.0320,-0.04994
23.0360,-0.04992
23.0400,-0.04990
23.0440,-0.04988
23.0480,-0.04986
23.0520,-0.04983
23.0560,-0.04981
23.0600,-0.04978
23.0640,-0.04975
23.0680,-0.04972
23.0720,-0.04968
23.0760,-0.04964
23.0800,-0.04961
23.0840,-0.04957
23.0880,-0.04952
23.0920,-0.04948
23.0960,-0.04943
23.1000,-0.04938
23.1040,-0.04933
23.1080,-0.04928
23.1120,-0.04923
23.1160,-0.04917
23.1200,-0.04911
23.1240,-0.04905
23.1280,-0.04899
23.1320,-0.04893
23.1360,-0.04886
23.1400,-0.04880
23.1440,-0.04873
23.1480,-0.04865
23.1520,-0.04858
23.1560,-0.04851
23.1600,-0.04843
23.1640,-0.04835
23.1680,-0.04827
23.1720,-0.04819
23.1760,-0.04810
23.1800,-0.04801
23.1840,-0.04793
23.1880,-0.04784
23.1920,-0.04774
23.1960,-0.04765
23.2000,-0.04755
23.2040,-0.04745
23.2080,-0.04735
23.2120,-0.04725
23.2160,-0.04715
23.2200,-0.04704
23.2240,-0.04694
23.2280,-0.04683
23.2320,-0.04672
23.2360,-0.04660
23.2400,-0.04649
23.2440,-0.04637
23.2480,-0.04625
23.2520,-0.04613
23.2560,-0.04601
23.2600,-0.04589
23.2640,-0.04576
23.2680,-0.04563
23.2720,-0.04551
23.2760,-0.04537
23.2800,-0.04524
23.2840,-0.04511
23.2880,-0.04497
23.2920,-0.04483
23.2960,-0.04469
23.3000,-0.04455
23.3040,-0.04441
23.3080,-0.04426
23.3120,-0.04411
23.3160,-0.04397
23.3200,-0.04382
23.3240,-0.04366
23.3280,-0.04351
23.3320,-0.04335
23.3360,-0.04320
23.3400,-0.04304
23.3440,-0.04288
23.3480,-0.04271
23.3520,-0.04255
23.3560,-0.04238
23.3600,-0.04222
23.3640,-0.04205
23.3680,-0.04188
23.3720,-0.04170
23.3760,-0.04153
23.3800,-0.04135
23.3840,-0.04118
23.3880,-0.04100
23.3920,-0.04082
23.3960,-0.04063
23.4000,-0.04045
23.4040,-0.04027
23.4080,-0.04008
23.4120,-0.03989
23.4160,-0.03970
23.4200,-0.03951
23.4240,-0.03931
23.4280,-0.03912
23.4320,-0.03892
23.4360,-0.03873
23.4400,-0.03853
23.4440,-0.03832
23.4480,-0.03812
23.4520,-0.03792
23.4560,-0.03771
23.4600,-0.03750
23.4640,-0.03726
23.4680,-0.03675
23.4720,-0.03469
23.4760,-0.02555
23.4800,0.00749
23.4840,0.09910
23.4880,0.28864
23.4920,0.57073
23.4960,0.84692
23.5000,0.96464
23.5040,0.84736
23.5080,0.57162
23.5120,0.28997
23.5160,0.10088
23.5200,0.00971
23.5240,-0.02289
23.5280,-0.03158
23.5320,-0.03320
23.5360,-0.03326
23.5400,-0.03306
23.5440,-0.03283
23.5480,-0.03259
23.5520,-0.03235
23.5560,-0.03211
23.5600,-0.03187
23.5640,-0.03163
23.5680,-0.03138
23.5720,-0.03114
23.5760,-0.03089
23.5800,-0.03065
23.5840,-0.03040
23.5880,-0.03015
23.5920,-0.02990
23.5960,-0.02964
23.6000,-0.02939
23.6040,-0.02913
23.6080,-0.02888
23.6120,-0.02862
23.6160,-0.02836
23.6200,-0.02810
23.6240,-0.02784
23.6280,-0.02758
23.6320,-0.02732
23.6360,-0.02706
23.6400,-0.02679
23.6440,-0.02653
23.6480,-0.02626
23.6520,-0.02599
23.6560,-0.02572
23.6600,-0.02545
23.6640,-0.02518
23.6680,-0.02491
23.6720,-0.02464
23.6760,-0.02436
23.6800,-0.02409
23.6840,-0.02381
23.6880,-0.02354
23.6920,-0.02326
23.6960,-0.02298
23.7000,-0.02270
23.7040,-0.02242
23.7080,-0.02214
23.7120,-0.02186
23.7160,-0.02157
23.7200,-0.02129
23.7240,-0.02100
23.7280,-0.02072
23.7320,-0.02043
23.7360,-0.02015
23.7400,-0.01986
23.7440,-0.01957
23.7480,-0.01928
23.7520,-0.01899
23.7560,-0.01870
23.7600,-0.01841
23.7640,-0.01811
23.7680,-0.01782
23.7720,-0.01753
23.7760,-0.01723
23.7800,-0.01694
23.7840,-0.01664
23.7880,-0.01634
23.7920,-0.01605
23.7960,-0.01575
23.8000,-0.01545
23.8040,-0.01515
23.8080,-0.01485
23.8120,-0.01455
23.8160,-0.01425
23.8200,-0.01395
23.8240,-0.01365
23.8280,-0.01335
23.8320,-0.01304
23.8360,-0.01274
23.8400,-0.01243
23.8440,-0.01213
23.8480,-0.01182
23.8520,-0.01152
23.8560,-0.01121
23.8600,-0.01091
23.8640,-0.01060
23.8680,-0.01029
23.8720,-0.00999
23.8760,-0.00968
23.8800,-0.00937
23.8840,-0.00906
23.8880,-0.00875
23.8920,-0.00844
23.8960,-0.00813
23.9000,-0.00782
23.9040,-0.00751
23.9080,-0.00720
23.9120,-0.00689
23.9160,-0.00658
23.9200,-0.00627
23.9240,-0.00595
23.9280,-0.00564
23.9320,-0.00533
23.9360,-0.00502
23.9400,-0.00471
23.9440,-0.00439
23.9480,-0.00408
23.9520,-0.00377
23.9560,-0.00345
23.9600,-0.00314
23.9640,-0.00283
23.9680,-0.00251
23.9720,-0.00220
23.9760,-0.00188
23.9800,-0.00157
23.9840,-0.00126
23.9880,-0.00094
23.9920,-0.00063
23.9960,-0.00031
24.0000,-0.00000
24.0040,0.00031
24.0080,0.00063
24.0120,0.00094
24.0160,0.00126
24.0200,0.00157
24.0240,0.00188
24.0280,0.00220
24.0320,0.00251
24.0360,0.00283
24.0400,0.00314
24.0440,0.00345
24.0480,0.00377
24.0520,0.00408
24.0560,0.00439
24.0600,0.00471
24.0640,0.00502
24.0680,0.00533
24.0720,0.00564
24.0760,0.00595
24.0800,0.00627
24.0840,0.00658
24.0880,0.00689
24.0920,0.00720
24.0960,0.00751
24.1000,0.00782
24.1040,0.00813
24.1080,0.00844
24.1120,0.00875
24.1160,0.00906
24.1200,0.00937
24.1240,0.00968
24.1280,0.00999
24.1320,0.01029
24.1360,0.01060
24.1400,0.01091
24.1440,0.01121
24.1480,0.01152
24.1520,0.01182
24.1560,0.01213
24.1600,0.01243
24.1640,0.01274
24.1680,0.01304
24.1720,0.01335
24.1760,0.01365
24.1800,0.01395
24.1840,0.01425
24.1880,0.01455
24.1920,0.01485
24.1960,0.01515
24.2000,0.01545
24.2040,0.01575
24.2080,0.01605
24.2120,0.01634
24.2160,0.01664
24.2200,0.01694
24.2240,0.01723
24.2280,0.01753
24.2320,0.01782
24.2360,0.01811
24.2400,0.01841
24.2440,0.01870
24.2480,0.01899
24.2520,0.01928
24.2560,0.01957
24.2600,0.01986
24.2640,0.02015
24.2680,0.02043
24.2720,0.02072
24.2760,0.02100
24.2800,0.02129
24.2840,0.02157
24.2880,0.02186
24.2920,0.02214
24.2960,0.02242
24.3000,0.02270
24.3040,0.02298
24.3080,0.02326
24.3120,0.02354
24.3160,0.02381
24.3200,0.02409
24.3240,0.02436
24.3280,0.02464
24.3320,0.02491
24.3360,0.02518
24.3400,0.02545
24.3440,0.02572
24.3480,0.02599
24.3520,0.02626
24.3560,0.02653
24.3600,0.02679
24.3640,0.02706
24.3680,0.02732
24.3720,0.02758
24.3760,0.02784
24.3800,0.02810
24.3840,0.02836
24.3880,0.02862
24.3920,0.02888
24.3960,0.02913
24.4000,0.02939
24.4040,0.02964
24.4080,0.02990
24.4120,0.03015
24.4160,0.03040
24.4200,0.03065
24.4240,0.03089
24.4280,0.03114
24.4320,0.03138
24.4360,0.03163
24.4400,0.03187
24.4440,0.03211
24.4480,0.03235
24.4520,0.03259
24.4560,0.03283
24.4600,0.03307
24.4640,0.03334
24.4680,0.03387
24.4720,0.03595
24.4760,0.04511
24.4800,0.07816
24.4840,0.16979
24.4880,0.35934
24.4920,0.64144
24.4960,0.91763
24.5000,1.03536
24.5040,0.91807
24.5080,0.64233
24.5120,0.36067
24.5160,0.17157
24.5200,0.08039
24.5240,0.04777
24.5280,0.03906
24.5320,0.03742
24.5360,0.03734
24.5400,0.03751
24.5440,0.03771
24.5480,0.03792
24.5520,0.03812
24.5560,0.03832
24.5600,0.03853
24.5640,0.03873
24.5680,0.03892
24.5720,0.03912
24.5760,0.03931
24.5800,0.03951
24.5840,0.03970
24.5880,0.03989
24.5920,0.04008
24.5960,0.04027
24.6000,0.04045
24.6040,0.04063
24.6080,0.04082
24.6120,0.04100
24.6160,0.04118
24.6200,0.04135
24.6240,0.04153
24.6280,0.04170
24.6320,0.04188
24.6360,0.04205
24.6400,0.04222
24.6440,0.04238
24.6480,0.04255
24.6520,0.04271
24.6560,0.04288
24.6600,0.04304
24.6640,0.04320
24.6680,0.04335
24.6720,0.04351
24.6760,0.04366
24.6800,0.04382
24.6840,0.04397
24.6880,0.04411
24.6920,0.04426
24.6960,0.04441
24.7000,0.04455
24.7040,0.04469
24.7080,0.04483
24.7120,0.04497
24.7160,0.04511
24.7200,0.04524
24.7240,0.04537
24.7280,0.04551
24.7320,0.04563
24.7360,0.04576
24.7400,0.04589
24.7440,0.04601
24.7480,0.04613
24.7520,0.04625
24.7560,0.04637
24.7600,0.04649
24.7640,0.04660
24.7680,0.04672
24.7720,0.04683
24.7760,0.04694
24.7800,0.04704
24.7840,0.04715
24.7880,0.04725
24.7920,0.04735
24.7960,0.04745
24.8000,0.04755
24.8040,0.04765
24.8080,0.04774
24.8120,0.04784
24.8160,0.04793
24.8200,0.04801
24.8240,0.04810
24.8280,0.04819
24.8320,0.04827
24.8360,0.04835
24.8400,0.04843
24.8440,0.04851
24.8480,0.04858
24.8520,0.04865
24.8560,0.04873
24.8600,0.04880
24.8640,0.04886
24.8680,0.04893
24.8720,0.04899
24.8760,0.04905
24.8800,0.04911
24.8840,0.04917
24.8880,0.04923
24.8920,0.04928
24.8960,0.04933
24.9000,0.04938
24.9040,0.04943
24.9080,0.04948
24.9120,0.04952
24.9160,0.04957
24.9200,0.04961
24.9240,0.04964
24.9280,0.04968
24.9320,0.04972
24.9360,0.04975
24.9400,0.04978
24.9440,0.04981
24.9480,0.04983
24.9520,0.04986
24.9560,0.04988
24.9600,0.04990
24.9640,0.04992
24.9680,0.04994
24.9720,0.04995
24.9760,0.04996
24.9800,0.04998
24.9840,0.04998
24.9880,0.04999
24.9920,0.05000
24.9960,0.05000
25.0000,0.05000
25.0040,0.05000
25.0080,0.05000
25.0120,0.04999
25.0160,0.04998
25.0200,0.04998
25.0240,0.04996
25.0280,0.04995
25.0320,0.04994
25.0360,0.04992
25.0400,0.04990
25.0440,0.04988
25.0480,0.04986
25.0520,0.04983
25.0560,0.04981
25.0600,0.04978
25.0640,0.04975
25.0680,0.04972
25.0720,0.04968
25.0760,0.04964
25.0800,0.04961
25.0840,0.04957
25.0880,0.04952
25.0920,0.04948
25.0960,0.04943
25.1000,0.04938
25.1040,0.04933
25.1080,0.04928
25.1120,0.04923
25.1160,0.04917
25.1200,0.04911
25.1240,0.04905
25.1280,0.04899
25.1320,0.04893
25.1360,0.04886
25.1400,0.04880
25.1440,0.04873
25.1480,0.04865
25.1520,0.04858
25.1560,0.04851
25.1600,0.04843
25.1640,0.04835
25.1680,0.04827
25.1720,0.04819
25.1760,0.04810
25.1800,0.04801
25.1840,0.04793
25.1880,0.04784
25.1920,0.04774
25.1960,0.04765
25.2000,0.04755
25.2040,0.04745
25.2080,0.04735
25.2120,0.04725
25.2160,0.04715
25.2200,0.04704
25.2240,0.04694
25.2280,0.04683
25.2320,0.04672
25.2360,0.04660
25.2400,0.04649
25.2440,0.04637
25.2480,0.04625
25.2520,0.04613
25.2560,0.04601
25.2600,0.04589
25.2640,0.04576
25.2680,0.04563
25.2720,0.04551
25.2760,0.04537
25.2800,0.04524
25.2840,0.04511
25.2880,0.04497
25.2920,0.04483
25.2960,0.04469
25.3000,0.04455
25.3040,0.04441
25.3080,0.04426
25.3120,0.04411
25.3160,0.04397
25.3200,0.04382
25.3240,0.04366
25.3280,0.04351
25.3320,0.04335
25.3360,0.04320
25.3400,0.04304
25.3440,0.04288
25.3480,0.04271
25.3520,0.04255
25.3560,0.04238
25.3600,0.04222
25.3640,0.04205
25.3680,0.04188
25.3720,0.04170
25.3760,0.04153
25.3800,0.04135
25.3840,0.04118
25.3880,0.04100
25.3920,0.04082
25.3960,0.04063
25.4000,0.04045
25.4040,0.04027
25.4080,0.04008
25.4120,0.03989
25.4160,0.03970
25.4200,0.03951
25.4240,0.03931
25.4280,0.03912
25.4320,0.03892
25.4360,0.03873
25.4400,0.03853
25.4440,0.03832
25.4480,0.03812
25.4520,0.03792
25.4560,0.03771
25.4600,0.03751
25.4640,0.03734
25.4680,0.03742
25.4720,0.03906
25.4760,0.04777
25.4800,0.08039
25.4840,0.17157
25.4880,0.36067
25.4920,0.64233
25.4960,0.91807
25.5000,1.03536
25.5040,0.91763
25.5080,0.64144
25.5120,0.35934
25.5160,0.16979
25.5200,0.07816
25.5240,0.04511
25.5280,0.03595
25.5320,0.03387
25.5360,0.03334
25.5400,0.03307
25.5440,0.03283
25.5480,0.03259
25.5520,0.03235
25.5560,0.03211
25.5600,0.03187
25.5640,0.03163
25.5680,0.03138
25.5720,0.03114
25.5760,0.03089
25.5800,0.03065
25.5840,0.03040
25.5880,0.03015
25.5920,0.02990
25.5960,0.02964
25.6000,0.02939
25.6040,0.02913
25.6080,0.02888
25.6120,0.02862
25.6160,0.02836
25.6200,0.02810
25.6240,0.02784
25.6280,0.02758
25.6320,0.02732
25.6360,0.02706
25.6400,0.02679
25.6440,0.02653
25.6480,0.02626
25.6520,0.02599
25.6560,0.02572
25.6600,0.02545
25.6640,0.02518
25.6680,0.02491
25.6720,0.02464
25.6760,0.02436
25.6800,0.02409
25.6840,0.02381
25.6880,0.02354
25.6920,0.02326
25.6960,0.02298
25.7000,0.02270
25.7040,0.02242
25.7080,0.02214
25.7120,0.02186
25.7160,0.02157
25.7200,0.02129
25.7240,0.02100
25.7280,0.02072
25.7320,0.02043
25.7360,0.02015
25.7400,0.01986
25.7440,0.01957
25.7480,0.01928
25.7520,0.01899
25.7560,0.01870
25.7600,0.01841
25.7640,0.01811
25.7680,0.01782
25.7720,0.01753
25.7760,0.01723
25.7800,0.01694
25.7840,0.01664
25.7880,0.01634
25.7920,0.01605
25.7960,0.01575
25.8000,0.01545
25.8040,0.01515
25.8080,0.01485
25.8120,0.01455
25.8160,0.01425
25.8200,0.01395
25.8240,0.01365
25.8280,0.01335
25.8320,0.01304
25.8360,0.01274
25.8400,0.01243
25.8440,0.01213
25.8480,0.01182
25.8520,0.01152
25.8560,0.01121
25.8600,0.01091
25.8640,0.01060
25.8680,0.01029
25.8720,0.00999
25.8760,0.00968
25.8800,0.00937
25.8840,0.00906
25.8880,0.00875
25.8920,0.00844
25.8960,0.00813
25.9000,0.00782
25.9040,0.00751
25.9080,0.00720
25.9120,0.00689
25.9160,0.00658
25.9200,0.00627
25.9240,0.00595
25.9280,0.00564
25.9320,0.00533
25.9360,0.00502
25.9400,0.00471
25.9440,0.00439
25.9480,0.00408
25.9520,0.00377
25.9560,0.00345
25.9600,0.00314
25.9640,0.00283
25.9680,0.00251
25.9720,0.00220
25.9760,0.00188
25.9800,0.00157
25.9840,0.00126
25.9880,0.00094
25.9920,0.00063
25.9960,0.00031
26.0000,-0.00000
26.0040,-0.00031
26.0080,-0.00063
26.0120,-0.00094
26.0160,-0.00126
26.0200,-0.00157
26.0240,-0.00188
26.0280,-0.00220
26.0320,-0.00251
26.0360,-0.00283
26.0400,-0.00314
26.0440,-0.00345
26.0480,-0.00377
26.0520,-0.00408
26.0560,-0.00439
26.0600,-0.00471
26.0640,-0.00502
26.0680,-0.00533
26.0720,-0.00564
26.0760,-0.00595
26.0800,-0.00627
26.0840,-0.00658
26.0880,-0.00689
26.0920,-0.00720
26.0960,-0.00751
26.1000,-0.00782
26.1040,-0.00813
26.1080,-0.00844
26.1120,-0.00875
26.1160,-0.00906
26.1200,-0.00937
26.1240,-0.00968
26.1280,-0.00999
26.1320,-0.01029
26.1360,-0.01060
26.1400,-0.01091
26.1440,-0.01121
26.1480,-0.01152
26.1520,-0.01182
26.1560,-0.01213
26.1600,-0.01243
26.1640,-0.01274
26.1680,-0.01304
26.1720,-0.01335
26.1760,-0.01365
26.1800,-0.01395
26.1840,-0.01425
26.1880,-0.01455
26.1920,-0.01485
26.1960,-0.01515
26.2000,-0.01545
26.2040,-0.01575
26.2080,-0.01605
26.2120,-0.01634
26.2160,-0.01664
26.2200,-0.01694
26.2240,-0.01723
26.2280,-0.01753
26.2320,-0.01782
26.2360,-0.01811
26.2400,-0.01841
26.2440,-0.01870
26.2480,-0.01899
26.2520,-0.01928
26.2560,-0.01957
26.2600,-0.01986
26.2640,-0.02015
26.2680,-0.02043
26.2720,-0.02072
26.2760,-0.02100
26.2800,-0.02129
26.2840,-0.02157
26.2880,-0.02186
26.2920,-0.02214
26.2960,-0.02242
26.3000,-0.02270
26.3040,-0.02298
26.3080,-0.02326
26.3120,-0.02354
26.3160,-0.02381
26.3200,-0.02409
26.3240,-0.02436
26.3280,-0.02464
26.3320,-0.02491
26.3360,-0.02518
26.3400,-0.02545
26.3440,-0.02572
26.3480,-0.02599
26.3520,-0.02626
26.3560,-0.02653
26.3600,-0.02679
26.3640,-0.02706
26.3680,-0.02732
26.3720,-0.02758
26.3760,-0.02784
26.3800,-0.02810
26.3840,-0.02836
26.3880,-0.02862
26.3920,-0.02888
26.3960,-0.02913
26.4000,-0.02939
26.4040,-0.02964
26.4080,-0.02990
26.4120,-0.03015
26.4160,-0.03040
26.4200,-0.03065
26.4240,-0.03089
26.4280,-0.03114
26.4320,-0.03138
26.4360,-0.03163
26.4400,-0.03187
26.4440,-0.03211
26.4480,-0.03235
26.4520,-0.03259
26.4560,-0.03283
26.4600,-0.03306
26.4640,-0.03326
26.4680,-0.03320
26.4720,-0.03158
26.4760,-0.02289
26.4800,0.00971
26.4840,0.10088
26.4880,0.28997
26.4920,0.57162
26.4960,0.84736
26.5000,0.96464
26.5040,0.84692
26.5080,0.57073
26.5120,0.28864
26.5160,0.09910
26.5200,0.00749
26.5240,-0.02555
26.5280,-0.03469
26.5320,-0.03675
26.5360,-0.03726
26.5400,-0.03750
26.5440,-0.03771
26.5480,-0.03792
26.5520,-0.03812
26.5560,-0.03832
26.5600,-0.03853
26.5640,-0.03873
26.5680,-0.03892
26.5720,-0.03912
26.5760,-0.03931
26.5800,-0.03951
26.5840,-0.03970
26.5880,-0.03989
26.5920,-0.04008
26.5960,-0.04027
26.6000,-0.04045
26.6040,-0.04063
26.6080,-0.04082
26.6120,-0.04100
26.6160,-0.04118
26.6200,-0.04135
26.6240,-0.04153
26.6280,-0.04170
26.6320,-0.04188
26.6360,-0.04205
26.6400,-0.04222
26.6440,-0.04238
26.6480,-0.04255
26.6520,-0.04271
26.6560,-0.04288
26.6600,-0.04304
26.6640,-0.04320
26.6680,-0.04335
26.6720,-0.04351
26.6760,-0.04366
26.6800,-0.04382
26.6840,-0.04397
26.6880,-0.04411
26.6920,-0.04426
26.6960,-0.04441
26.7000,-0.04455
26.7040,-0.04469
26.7080,-0.04483
26.7120,-0.04497
26.7160,-0.04511
26.7200,-0.04524
26.7240,-0.04537
26.7280,-0.04551
26.7320,-0.04563
26.7360,-0.04576
26.7400,-0.04589
26.7440,-0.04601
26.7480,-0.04613
26.7520,-0.04625
26.7560,-0.04637
26.7600,-0.04649
26.7640,-0.04660
26.7680,-0.04672
26.7720,-0.04683
26.7760,-0.04694
26.7800,-0.04704
26.7840,-0.04715
26.7880,-0.04725
26.7920,-0.04735
26.7960,-0.04745
26.8000,-0.04755
26.8040,-0.04765
26.8080,-0.04774
26.8120,-0.04784
26.8160,-0.04793
26.8200,-0.04801
26.8240,-0.04810
26.8280,-0.04819
26.8320,-0.04827
26.8360,-0.04835
26.8400,-0.04843
26.8440,-0.04851
26.8480,-0.04858
26.8520,-0.04865
26.8560,-0.04873
26.8600,-0.04880
26.8640,-0.04886
26.8680,-0.04893
26.8720,-0.04899
26.8760,-0.04905
26.8800,-0.04911
26.8840,-0.04917
26.8880,-0.04923
26.8920,-0.04928
26.8960,-0.04933
26.9000,-0.04938
26.9040,-0.04943
26.9080,-0.04948
26.9120,-0.04952
26.9160,-0.04957
26.9200,-0.04961
26.9240,-0.04964
26.9280,-0.04968
26.9320,-0.04972
26.9360,-0.04975
26.9400,-0.04978
26.9440,-0.04981
26.9480,-0.04983
26.9520,-0.04986
26.9560,-0.04988
26.9600,-0.04990
26.9640,-0.04992
26.9680,-0.04994
26.9720,-0.04995
26.9760,-0.04996
26.9800,-0.04998
26.9840,-0.04998
26.9880,-0.04999
26.9920,-0.05000
26.9960,-0.05000
27.0000,-0.05000
27.0040,-0.05000
27.0080,-0.05000
27.0120,-0.04999
27.0160,-0.04998
27.0200,-0.04998
27.0240,-0.04996
27.0280,-0.04995
27.0320,-0.04994
27.0360,-0.04992
27.0400,-0.04990
27.0440,-0.04988
27.0480,-0.04986
27.0520,-0.04983
27.0560,-0.04981
27.0600,-0.04978
27.0640,-0.04975
27.0680,-0.04972
27.0720,-0.04968
27.0760,-0.04964
27.0800,-0.04961
27.0840,-0.04957
27.0880,-0.04952
27.0920,-0.04948
27.0960,-0.04943
27.1000,-0.04938
27.1040,-0.04933
27.1080,-0.04928
27.1120,-0.04923
27.1160,-0.04917
27.1200,-0.04911
27.1240,-0.04905
27.1280,-0.04899
27.1320,-0.04893
27.1360,-0.04886
27.1400,-0.04880
27.1440,-0.04873
27.1480,-0.04865
27.1520,-0.04858
27.1560,-0.04851
27.1600,-0.04843
27.1640,-0.04835
27.1680,-0.04827
27.1720,-0.04819
27.1760,-0.04810
27.1800,-0.04801
27.1840,-0.04793
27.1880,-0.04784
27.1920,-0.04774
27.1960,-0.04765
27.2000,-0.04755
27.2040,-0.04745
27.2080,-0.04735
27.2120,-0.04725
27.2160,-0.04715
27.2200,-0.04704
27.2240,-0.04694
27.2280,-0.04683
27.2320,-0.04672
27.2360,-0.04660
27.2400,-0.04649
27.2440,-0.04637
27.2480,-0.04625
27.2520,-0.04613
27.2560,-0.04601
27.2600,-0.04589
27.2640,-0.04576
27.2680,-0.04563
27.2720,-0.04551
27.2760,-0.04537
27.2800,-0.04524
27.2840,-0.04511
27.2880,-0.04497
27.2920,-0.04483
27.2960,-0.04469
27.3000,-0.04455
27.3040,-0.04441
27.3080,-0.04426
27.3120,-0.04411
27.3160,-0.04397
27.3200,-0.04382
27.3240,-0.04366
27.3280,-0.04351
27.3320,-0.04335
27.3360,-0.04320
27.3400,-0.04304
27.3440,-0.04288
27.3480,-0.04271
27.3520,-0.04255
27.3560,-0.04238
27.3600,-0.04222
27.3640,-0.04205
27.3680,-0.04188
27.3720,-0.04170
27.3760,-0.04153
27.3800,-0.04135
27.3840,-0.04118
27.3880,-0.04100
27.3920,-0.04082
27.3960,-0.04063
27.4000,-0.04045
27.4040,-0.04027
27.4080,-0.04008
27.4120,-0.03989
27.4160,-0.03970
27.4200,-0.03951
27.4240,-0.03931
27.4280,-0.03912
27.4320,-0.03892
27.4360,-0.03873
27.4400,-0.03853
27.4440,-0.03832
27.4480,-0.03812
27.4520,-0.03792
27.4560,-0.03771
27.4600,-0.03750
27.4640,-0.03726
27.4680,-0.03675
27.4720,-0.03469
27.4760,-0.02555
27.4800,0.00749
27.4840,0.09910
27.4880,0.28864
27.4920,0.57073
27.4960,0.84692
27.5000,0.96464
27.5040,0.84736
27.5080,0.57162
27.5120,0.28997
27.5160,0.10088
27.5200,0.00971
27.5240,-0.02289
27.5280,-0.03158
27.5320,-0.03320
27.5360,-0.03326
27.5400,-0.03306
27.5440,-0.03283
27.5480,-0.03259
27.5520,-0.03235
27.5560,-0.03211
27.5600,-0.03187
27.5640,-0.03163
27.5680,-0.03138
27.5720,-0.03114
27.5760,-0.03089
27.5800,-0.03065
27.5840,-0.03040
27.5880,-0.03015
27.5920,-0.02990
27.5960,-0.02964
27.6000,-0.02939
27.6040,-0.02913
27.6080,-0.02888
27.6120,-0.02862
27.6160,-0.02836
27.6200,-0.02810
27.6240,-0.02784
27.6280,-0.02758
27.6320,-0.02732
27.6360,-0.02706
27.6400,-0.02679
27.6440,-0.02653
27.6480,-0.02626
27.6520,-0.02599
27.6560,-0.02572
27.6600,-0.02545
27.6640,-0.02518
27.6680,-0.02491
27.6720,-0.02464
27.6760,-0.02436
27.6800,-0.02409
27.6840,-0.02381
27.6880,-0.02354
27.6920,-0.02326
27.6960,-0.02298
27.7000,-0.02270
27.7040,-0.02242
27.7080,-0.02214
27.7120,-0.02186
27.7160,-0.02157
27.7200,-0.02129
27.7240,-0.02100
27.7280,-0.02072
27.7320,-0.02043
27.7360,-0.02015
27.7400,-0.01986
27.7440,-0.01957
27.7480,-0.01928
27.7520,-0.01899
27.7560,-0.01870
27.7600,-0.01841
27.7640,-0.01811
27.7680,-0.01782
27.7720,-0.01753
27.7760,-0.01723
27.7800,-0.01694
27.7840,-0.01664
27.7880,-0.01634
27.7920,-0.01605
27.7960,-0.01575
27.8000,-0.01545
27.8040,-0.01515
27.8080,-0.01485
27.8120,-0.01455
27.8160,-0.01425
27.8200,-0.01395
27.8240,-0.01365
27.8280,-0.01335
27.8320,-0.01304
27.8360,-0.01274
27.8400,-0.01243
27.8440,-0.01213
27.8480,-0.01182
27.8520,-0.01152
27.8560,-0.01121
27.8600,-0.01091
27.8640,-0.01060
27.8680,-0.01029
27.8720,-0.00999
27.8760,-0.00968
27.8800,-0.00937
27.8840,-0.00906
27.8880,-0.00875
27.8920,-0.00844
27.8960,-0.00813
27.9000,-0.00782
27.9040,-0.00751
27.9080,-0.00720
27.9120,-0.00689
27.9160,-0.00658
27.9200,-0.00627
27.9240,-0.00595
27.9280,-0.00564
27.9320,-0.00533
27.9360,-0.00502
27.9400,-0.00471
27.9440,-0.00439
27.9480,-0.00408
27.9520,-0.00377
27.9560,-0.00345
27.9600,-0.00314
27.9640,-0.00283
27.9680,-0.00251
27.9720,-0.00220
27.9760,-0.00188
27.9800,-0.00157
27.9840,-0.00126
27.9880,-0.00094
27.9920,-0.00063
27.9960,-0.00031
28.0000,-0.00000
28.0040,0.00031
28.0080,0.00063
28.0120,0.00094
28.0160,0.00126
28.0200,0.00157
28.0240,0.00188
28.0280,0.00220
28.0320,0.00251
28.0360,0.00283
28.0400,0.00314
28.0440,0.00345
28.0480,0.00377
28.0520,0.00408
28.0560,0.00439
28.0600,0.00471
28.0640,0.00502
28.0680,0.00533
28.0720,0.00564
28.0760,0.00595
28.0800,0.00627
28.0840,0.00658
28.0880,0.00689
28.0920,0.00720
28.0960,0.00751
28.1000,0.00782
28.1040,0.00813
28.1080,0.00844
28.1120,0.00875
28.1160,0.00906
28.1200,0.00937
28.1240,0.00968
28.1280,0.00999
28.1320,0.01029
28.1360,0.01060
28.1400,0.01091
28.1440,0.01121
28.1480,0.01152
28.1520,0.01182
28.1560,0.01213
28.1600,0.01243
28.1640,0.01274
28.1680,0.01304
28.1720,0.01335
28.1760,0.01365
28.1800,0.01395
28.1840,0.01425
28.1880,0.01455
28.1920,0.01485
28.1960,0.01515
28.2000,0.01545
28.2040,0.01575
28.2080,0.01605
28.2120,0.01634
28.2160,0.01664
28.2200,0.01694
28.2240,0.01723
28.2280,0.01753
28.2320,0.01782
28.2360,0.01811
28.2400,0.01841
28.2440,0.01870
28.2480,0.01899
28.2520,0.01928
28.2560,0.01957
28.2600,0.01986
28.2640,0.02015
28.2680,0.02043
28.2720,0.02072
28.2760,0.02100
28.2800,0.02129
28.2840,0.02157
28.2880,0.02186
28.2920,0.02214
28.2960,0.02242
28.3000,0.02270
28.3040,0.02298
28.3080,0.02326
28.3120,0.02354
28.3160,0.02381
28.3200,0.02409
28.3240,0.02436
28.3280,0.02464
28.3320,0.02491
28.3360,0.02518
28.3400,0.02545
28.3440,0.02572
28.3480,0.02599
28.3520,0.02626
28.3560,0.02653
28.3600,0.02679
28.3640,0.02706
28.3680,0.02732
28.3720,0.02758
28.3760,0.02784
28.3800,0.02810
28.3840,0.02836
28.3880,0.02862
28.3920,0.02888
28.3960,0.02913
28.4000,0.02939
28.4040,0.02964
28.4080,0.02990
28.4120,0.03015
28.4160,0.03040
28.4200,0.03065
28.4240,0.03089
28.4280,0.03114
28.4320,0.03138
28.4360,0.03163
28.4400,0.03187
28.4440,0.03211
28.4480,0.03235
28.4520,0.03259
28.4560,0.03283
28.4600,0.03307
28.4640,0.03334
28.4680,0.03387
28.4720,0.03595
28.4760,0.04511
28.4800,0.07816
28.4840,0.16979
28.4880,0.35934
28.4920,0.64144
28.4960,0.91763
28.5000,1.03536
28.5040,0.91807
28.5080,0.64233
28.5120,0.36067
28.5160,0.17157
28.5200,0.08039
28.5240,0.04777
28.5280,0.03906
28.5320,0.03742
28.5360,0.03734
28.5400,0.03751
28.5440,0.03771
28.5480,0.03792
28.5520,0.03812
28.5560,0.03832
28.5600,0.03853
28.5640,0.03873
28.5680,0.03892
28.5720,0.03912
28.5760,0.03931
28.5800,0.03951
28.5840,0.03970
28.5880,0.03989
28.5920,0.04008
28.5960,0.04027
28.6000,0.04045
28.6040,0.04063
28.6080,0.04082
28.6120,0.04100
28.6160,0.04118
28.6200,0.04135
28.6240,0.04153
28.6280,0.04170
28.6320,0.04188
28.6360,0.04205
28.6400,0.04222
28.6440,0.04238
28.6480,0.04255
28.6520,0.04271
28.6560,0.04288
28.6600,0.04304
28.6640,0.04320
28.6680,0.04335
28.6720,0.04351
28.6760,0.04366
28.6800,0.04382
28.6840,0.04397
28.6880,0.04411
28.6920,0.04426
28.6960,0.04441
28.7000,0.04455
28.7040,0.04469
28.7080,0.04483
28.7120,0.04497
28.7160,0.04511
28.7200,0.04524
28.7240,0.04537
28.7280,0.04551
28.7320,0.04563
28.7360,0.04576
28.7400,0.04589
28.7440,0.04601
28.7480,0.04613
28.7520,0.04625
28.7560,0.04637
28.7600,0.04649
28.7640,0.04660
28.7680,0.04672
28.7720,0.04683
28.7760,0.04694
28.7800,0.04704
28.7840,0.04715
28.7880,0.04725
28.7920,0.04735
28.7960,0.04745
28.8000,0.04755
28.8040,0.04765
28.8080,0.04774
28.8120,0.04784
28.8160,0.04793
28.8200,0.04801
28.8240,0.04810
28.8280,0.04819
28.8320,0.04827
28.8360,0.04835
28.8400,0.04843
28.8440,0.04851
28.8480,0.04858
28.8520,0.04865
28.8560,0.04873
28.8600,0.04880
28.8640,0.04886
28.8680,0.04893
28.8720,0.04899
28.8760,0.04905
28.8800,0.04911
28.8840,0.04917
28.8880,0.04923
28.8920,0.04928
28.8960,0.04933
28.9000,0.04938
28.9040,0.04943
28.9080,0.04948
28.9120,0.04952
28.9160,0.04957
28.9200,0.04961
28.9240,0.04964
28.9280,0.04968
28.9320,0.04972
28.9360,0.04975
28.9400,0.04978
28.9440,0.04981
28.9480,0.04983
28.9520,0.04986
28.9560,0.04988
28.9600,0.04990
28.9640,0.04992
28.9680,0.04994
28.9720,0.04995
28.9760,0.04996
28.9800,0.04998
28.9840,0.04998
28.9880,0.04999
28.9920,0.05000
28.9960,0.05000
29.0000,0.05000
29.0040,0.05000
29.0080,0.05000
29.0120,0.04999
29.0160,0.04998
29.0200,0.04998
29.0240,0.04996
29.0280,0.04995
29.0320,0.04994
29.0360,0.04992
29.0400,0.04990
29.0440,0.04988
29.0480,0.04986
29.0520,0.04983
29.0560,0.04981
29.0600,0.04978
29.0640,0.04975
29.0680,0.04972
29.0720,0.04968
29.0760,0.04964
29.0800,0.04961
29.0840,0.04957
29.0880,0.04952
29.0920,0.04948
29.0960,0.04943
29.1000,0.04938
29.1040,0.04933
29.1080,0.04928
29.1120,0.04923
29.1160,0.04917
29.1200,0.04911
29.1240,0.04905
29.1280,0.04899
29.1320,0.04893
29.1360,0.04886
29.1400,0.04880
29.1440,0.04873
29.1480,0.04865
29.1520,0.04858
29.1560,0.04851
29.1600,0.04843
29.1640,0.04835
29.1680,0.04827
29.1720,0.04819
29.1760,0.04810
29.1800,0.04801
29.1840,0.04793
29.1880,0.04784
29.1920,0.04774
29.1960,0.04765
29.2000,0.04755
29.2040,0.04745
29.2080,0.04735
29.2120,0.04725
29.2160,0.04715
29.2200,0.04704
29.2240,0.04694
29.2280,0.04683
29.2320,0.04672
29.2360,0.04660
29.2400,0.04649
29.2440,0.04637
29.2480,0.04625
29.2520,0.04613
29.2560,0.04601
29.2600,0.04589
29.2640,0.04576
29.2680,0.04563
29.2720,0.04551
29.2760,0.04537
29.2800,0.04524
29.2840,0.04511
29.2880,0.04497
29.2920,0.04483
29.2960,0.04469
29.3000,0.04455
29.3040,0.04441
29.3080,0.04426
29.3120,0.04411
29.3160,0.04397
29.3200,0.04382
29.3240,0.04366
29.3280,0.04351
29.3320,0.04335
29.3360,0.04320
29.3400,0.04304
29.3440,0.04288
29.3480,0.04271
29.3520,0.04255
29.3560,0.04238
29.3600,0.04222
29.3640,0.04205
29.3680,0.04188
29.3720,0.04170
29.3760,0.04153
29.3800,0.04135
29.3840,0.04118
29.3880,0.04100
29.3920,0.04082
29.3960,0.04063
29.4000,0.04045
29.4040,0.04027
29.4080,0.04008
29.4120,0.03989
29.4160,0.03970
29.4200,0.03951
29.4240,0.03931
29.4280,0.03912
29.4320,0.03892
29.4360,0.03873
29.4400,0.03853
29.4440,0.03832
29.4480,0.03812
29.4520,0.03792
29.4560,0.03771
29.4600,0.03751
29.4640,0.03734
29.4680,0.03742
29.4720,0.03906
29.4760,0.04777
29.4800,0.08039
29.4840,0.17157
29.4880,0.36067
29.4920,0.64233
29.4960,0.91807
29.5000,1.03536
29.5040,0.91763
29.5080,0.64144
29.5120,0.35934
29.5160,0.16979
29.5200,0.07816
29.5240,0.04511
29.5280,0.03595
29.5320,0.03387
29.5360,0.03334
29.5400,0.03307
29.5440,0.03283
29.5480,0.03259
29.5520,0.03235
29.5560,0.03211
29.5600,0.03187
29.5640,0.03163
29.5680,0.03138
29.5720,0.03114
29.5760,0.03089
29.5800,0.03065
29.5840,0.03040
29.5880,0.03015
29.5920,0.02990
29.5960,0.02964
29.6000,0.02939
29.6040,0.02913
29.6080,0.02888
29.6120,0.02862
29.6160,0.02836
29.6200,0.02810
29.6240,0.02784
29.6280,0.02758
29.6320,0.02732
29.6360,0.02706
29.6400,0.02679
29.6440,0.02653
29.6480,0.02626
29.6520,0.02599
29.6560,0.02572
29.6600,0.02545
29.6640,0.02518
29.6680,0.02491
29.6720,0.02464
29.6760,0.02436
29.6800,0.02409
29.6840,0.02381
29.6880,0.02354
29.6920,0.02326
29.6960,0.02298
29.7000,0.02270
29.7040,0.02242
29.7080,0.02214
29.7120,0.02186
29.7160,0.02157
29.7200,0.02129
29.7240,0.02100
29.7280,0.02072
29.7320,0.02043
29.7360,0.02015
29.7400,0.01986
29.7440,0.01957
29.7480,0.01928
29.7520,0.01899
29.7560,0.01870
29.7600,0.01841
29.7640,0.01811
29.7680,0.01782
29.7720,0.01753
29.7760,0.01723
29.7800,0.01694
